epoch,accuracy,categorical_crossentropy,loss,lr,val_accuracy,val_categorical_crossentropy,val_loss
0,0.3100000023841858,1.1530205011367798,1.1530205011367798,0.001,0.6399999856948853,0.692579984664917,0.692579984664917
1,0.3100000023841858,0.9368582963943481,0.9368582963943481,0.001,0.6399999856948853,0.6914359331130981,0.6914359331130981
2,0.3400000035762787,0.7551274299621582,0.7551274299621582,0.001,0.6399999856948853,0.6900196671485901,0.6900196671485901
3,0.6399999856948853,0.6380652189254761,0.6380652189254761,0.001,0.6399999856948853,0.6882106065750122,0.6882106065750122
4,0.8100000023841858,0.5632398128509521,0.5632398128509521,0.001,0.6399999856948853,0.686500608921051,0.686500608921051
5,0.7799999713897705,0.5203472375869751,0.5203472375869751,0.001,0.6399999856948853,0.6851882338523865,0.6851882338523865
6,0.7699999809265137,0.48943787813186646,0.48943787813186646,0.001,0.6399999856948853,0.6842188835144043,0.6842188835144043
7,0.7699999809265137,0.46514132618904114,0.46514132618904114,0.001,0.6399999856948853,0.6833809614181519,0.6833809614181519
8,0.800000011920929,0.444162517786026,0.444162517786026,0.001,0.6399999856948853,0.6825909614562988,0.6825909614562988
9,0.8199999928474426,0.4245234727859497,0.4245234727859497,0.001,0.6399999856948853,0.6817861199378967,0.6817861199378967
10,0.8199999928474426,0.40582847595214844,0.40582847595214844,0.001,0.6399999856948853,0.6809927225112915,0.6809927225112915
11,0.8299999833106995,0.38812756538391113,0.38812756538391113,0.001,0.6399999856948853,0.680249035358429,0.680249035358429
12,0.8500000238418579,0.37133145332336426,0.37133145332336426,0.001,0.6399999856948853,0.6796039342880249,0.6796039342880249
13,0.8700000047683716,0.3558364510536194,0.3558364510536194,0.001,0.6399999856948853,0.6790955066680908,0.6790955066680908
14,0.8799999952316284,0.34161844849586487,0.34161844849586487,0.001,0.6399999856948853,0.678718626499176,0.678718626499176
15,0.8799999952316284,0.32895493507385254,0.32895493507385254,0.001,0.6399999856948853,0.6784366369247437,0.6784366369247437
16,0.8799999952316284,0.31701403856277466,0.31701403856277466,0.001,0.6399999856948853,0.6782577633857727,0.6782577633857727
17,0.8799999952316284,0.3064797818660736,0.3064797818660736,0.001,0.6399999856948853,0.6781694889068604,0.6781694889068604
18,0.8799999952316284,0.2968349754810333,0.2968349754810333,0.001,0.6399999856948853,0.6781485080718994,0.6781485080718994
19,0.8999999761581421,0.2875490188598633,0.2875490188598633,0.001,0.6399999856948853,0.6782217621803284,0.6782217621803284
20,0.8999999761581421,0.27872490882873535,0.27872490882873535,0.001,0.6399999856948853,0.6784480810165405,0.6784480810165405
21,0.8999999761581421,0.27046293020248413,0.27046293020248413,0.001,0.6399999856948853,0.6787897348403931,0.6787897348403931
22,0.8899999856948853,0.2625623941421509,0.2625623941421509,0.001,0.6399999856948853,0.6792405843734741,0.6792405843734741
23,0.9100000262260437,0.2546764612197876,0.2546764612197876,0.001,0.6399999856948853,0.6797893643379211,0.6797893643379211
24,0.9200000166893005,0.24720831215381622,0.24720831215381622,0.001,0.6399999856948853,0.6804341077804565,0.6804341077804565
25,0.9200000166893005,0.23980632424354553,0.23980632424354553,0.001,0.6399999856948853,0.6812551617622375,0.6812551617622375
26,0.9300000071525574,0.23233358561992645,0.23233358561992645,0.001,0.6700000166893005,0.6822806596755981,0.6822806596755981
27,0.9300000071525574,0.22544175386428833,0.22544175386428833,0.001,0.7099999785423279,0.6834700703620911,0.6834700703620911
28,0.9399999976158142,0.2187720686197281,0.2187720686197281,0.001,0.7799999713897705,0.6848649382591248,0.6848649382591248
29,0.9399999976158142,0.21195359528064728,0.21195359528064728,0.001,0.8399999737739563,0.6865386962890625,0.6865386962890625
30,0.9599999785423279,0.20543880760669708,0.20543880760669708,0.001,0.6700000166893005,0.6885826587677002,0.6885826587677002
31,0.9599999785423279,0.19875261187553406,0.19875261187553406,0.001,0.4099999964237213,0.690876841545105,0.690876841545105
32,0.9599999785423279,0.19249145686626434,0.19249145686626434,0.001,0.3700000047683716,0.6933912634849548,0.6933912634849548
33,0.9700000286102295,0.18647712469100952,0.18647712469100952,0.001,0.36000001430511475,0.6961020827293396,0.6961020827293396
34,0.9700000286102295,0.18043214082717896,0.18043214082717896,0.001,0.36000001430511475,0.6991735100746155,0.6991735100746155
35,0.9700000286102295,0.17425167560577393,0.17425167560577393,0.001,0.36000001430511475,0.7024511694908142,0.7024511694908142
36,0.9700000286102295,0.168625146150589,0.168625146150589,0.001,0.36000001430511475,0.7057950496673584,0.7057950496673584
37,0.9599999785423279,0.1658686399459839,0.1658686399459839,0.001,0.36000001430511475,0.7085871696472168,0.7085871696472168
38,0.9700000286102295,0.16991153359413147,0.16991153359413147,0.001,0.36000001430511475,0.7129889726638794,0.7129889726638794
39,0.9599999785423279,0.17119252681732178,0.17119252681732178,0.001,0.36000001430511475,0.7158622145652771,0.7158622145652771
40,0.9599999785423279,0.1607963740825653,0.1607963740825653,0.001,0.36000001430511475,0.7184569835662842,0.7184569835662842
41,0.9700000286102295,0.154433935880661,0.154433935880661,0.001,0.36000001430511475,0.7230679988861084,0.7230679988861084
42,0.9700000286102295,0.15533919632434845,0.15533919632434845,0.001,0.36000001430511475,0.7295107841491699,0.7295107841491699
43,0.9700000286102295,0.1406165063381195,0.1406165063381195,0.001,0.36000001430511475,0.7358860969543457,0.7358860969543457
44,0.9700000286102295,0.14380188286304474,0.14380188286304474,0.001,0.36000001430511475,0.7411476373672485,0.7411476373672485
45,0.9700000286102295,0.13333873450756073,0.13333873450756073,0.001,0.36000001430511475,0.7462103962898254,0.7462103962898254
46,0.9700000286102295,0.1311766356229782,0.1311766356229782,0.001,0.36000001430511475,0.752536416053772,0.752536416053772
47,0.9700000286102295,0.125198632478714,0.125198632478714,0.001,0.36000001430511475,0.759493887424469,0.759493887424469
48,0.9700000286102295,0.12047882378101349,0.12047882378101349,0.001,0.36000001430511475,0.7647498846054077,0.7647498846054077
49,0.9700000286102295,0.11693614721298218,0.11693614721298218,0.001,0.36000001430511475,0.7690936326980591,0.7690936326980591
50,0.9800000190734863,0.11157757043838501,0.11157757043838501,0.001,0.36000001430511475,0.7748319506645203,0.7748319506645203
51,0.9900000095367432,0.10607627034187317,0.10607627034187317,0.001,0.36000001430511475,0.7821447849273682,0.7821447849273682
52,0.9700000286102295,0.10528575628995895,0.10528575628995895,0.001,0.36000001430511475,0.7890485525131226,0.7890485525131226
53,0.9800000190734863,0.09815029054880142,0.09815029054880142,0.001,0.36000001430511475,0.7957152724266052,0.7957152724266052
54,0.9900000095367432,0.09605608880519867,0.09605608880519867,0.001,0.36000001430511475,0.8036431074142456,0.8036431074142456
55,0.9900000095367432,0.09178566187620163,0.09178566187620163,0.001,0.36000001430511475,0.8094745874404907,0.8094745874404907
56,0.9900000095367432,0.08645649254322052,0.08645649254322052,0.001,0.36000001430511475,0.8152741193771362,0.8152741193771362
57,0.9900000095367432,0.08496019244194031,0.08496019244194031,0.001,0.36000001430511475,0.8228996396064758,0.8228996396064758
58,1.0,0.08433707058429718,0.08433707058429718,0.001,0.36000001430511475,0.8281365036964417,0.8281365036964417
59,0.9900000095367432,0.0773654505610466,0.0773654505610466,0.001,0.36000001430511475,0.835295557975769,0.835295557975769
60,1.0,0.0732358917593956,0.0732358917593956,0.001,0.36000001430511475,0.8413767218589783,0.8413767218589783
61,1.0,0.07148867845535278,0.07148867845535278,0.001,0.36000001430511475,0.8459398746490479,0.8459398746490479
62,1.0,0.06966601312160492,0.06966601312160492,0.001,0.36000001430511475,0.8535845279693604,0.8535845279693604
63,1.0,0.06949885934591293,0.06949885934591293,0.001,0.36000001430511475,0.8591488003730774,0.8591488003730774
64,1.0,0.06385599821805954,0.06385599821805954,0.001,0.36000001430511475,0.8667919635772705,0.8667919635772705
65,1.0,0.05940014868974686,0.05940014868974686,0.001,0.36000001430511475,0.8724087476730347,0.8724087476730347
66,1.0,0.055166225880384445,0.055166225880384445,0.001,0.36000001430511475,0.8762304186820984,0.8762304186820984
67,1.0,0.05569499358534813,0.05569499358534813,0.001,0.36000001430511475,0.8820764422416687,0.8820764422416687
68,1.0,0.062308333814144135,0.062308333814144135,0.001,0.36000001430511475,0.8861544132232666,0.8861544132232666
69,1.0,0.06565293669700623,0.06565293669700623,0.0005,0.36000001430511475,0.8912765979766846,0.8912765979766846
70,1.0,0.04781273379921913,0.04781273379921913,0.0005,0.36000001430511475,0.8959415555000305,0.8959415555000305
71,1.0,0.05831434577703476,0.05831434577703476,0.0005,0.36000001430511475,0.8994541764259338,0.8994541764259338
72,1.0,0.048312827944755554,0.048312827944755554,0.0005,0.36000001430511475,0.9025681018829346,0.9025681018829346
73,1.0,0.050655756145715714,0.050655756145715714,0.0005,0.36000001430511475,0.9057307243347168,0.9057307243347168
74,1.0,0.04894561320543289,0.04894561320543289,0.0005,0.36000001430511475,0.9092004299163818,0.9092004299163818
75,1.0,0.046296339482069016,0.046296339482069016,0.0005,0.36000001430511475,0.9117723703384399,0.9117723703384399
76,1.0,0.04434003680944443,0.04434003680944443,0.0005,0.36000001430511475,0.913747251033783,0.913747251033783
77,1.0,0.04353991150856018,0.04353991150856018,0.0005,0.36000001430511475,0.9158989787101746,0.9158989787101746
78,1.0,0.04225648567080498,0.04225648567080498,0.0005,0.36000001430511475,0.9185254573822021,0.9185254573822021
79,1.0,0.039638448506593704,0.039638448506593704,0.0005,0.36000001430511475,0.9214803576469421,0.9214803576469421
80,1.0,0.04032938927412033,0.04032938927412033,0.0005,0.36000001430511475,0.9239561557769775,0.9239561557769775
81,1.0,0.03782142326235771,0.03782142326235771,0.0005,0.36000001430511475,0.9260678887367249,0.9260678887367249
82,1.0,0.03682757914066315,0.03682757914066315,0.0005,0.36000001430511475,0.928144097328186,0.928144097328186
83,1.0,0.036569371819496155,0.036569371819496155,0.0005,0.36000001430511475,0.9304603338241577,0.9304603338241577
84,1.0,0.034827299416065216,0.034827299416065216,0.0005,0.36000001430511475,0.9328866600990295,0.9328866600990295
85,1.0,0.03358817845582962,0.03358817845582962,0.0005,0.36000001430511475,0.9358133673667908,0.9358133673667908
86,1.0,0.033911265432834625,0.033911265432834625,0.0005,0.36000001430511475,0.9391555190086365,0.9391555190086365
87,1.0,0.03156149014830589,0.03156149014830589,0.0005,0.36000001430511475,0.9423448443412781,0.9423448443412781
88,1.0,0.03143451362848282,0.03143451362848282,0.0005,0.36000001430511475,0.9447209239006042,0.9447209239006042
89,1.0,0.031008685007691383,0.031008685007691383,0.0005,0.36000001430511475,0.9465352892875671,0.9465352892875671
90,1.0,0.02919459156692028,0.02919459156692028,0.0005,0.36000001430511475,0.9487299919128418,0.9487299919128418
91,1.0,0.02923632226884365,0.02923632226884365,0.0005,0.36000001430511475,0.9513704776763916,0.9513704776763916
92,1.0,0.02848711982369423,0.02848711982369423,0.0005,0.36000001430511475,0.9540937542915344,0.9540937542915344
93,1.0,0.027120869606733322,0.027120869606733322,0.0005,0.36000001430511475,0.9570262432098389,0.9570262432098389
94,1.0,0.027050785720348358,0.027050785720348358,0.0005,0.36000001430511475,0.9593382477760315,0.9593382477760315
95,1.0,0.026333177462220192,0.026333177462220192,0.0005,0.36000001430511475,0.9610110521316528,0.9610110521316528
96,1.0,0.02516176924109459,0.02516176924109459,0.0005,0.36000001430511475,0.9625967144966125,0.9625967144966125
97,1.0,0.025194162502884865,0.025194162502884865,0.0005,0.36000001430511475,0.965135931968689,0.965135931968689
98,1.0,0.02419518493115902,0.02419518493115902,0.0005,0.36000001430511475,0.9676109552383423,0.9676109552383423
99,1.0,0.023589540272951126,0.023589540272951126,0.0005,0.36000001430511475,0.9696049690246582,0.9696049690246582
100,1.0,0.0233219675719738,0.0233219675719738,0.0005,0.36000001430511475,0.9710190296173096,0.9710190296173096
101,1.0,0.02251628413796425,0.02251628413796425,0.0005,0.36000001430511475,0.9723132252693176,0.9723132252693176
102,1.0,0.022092990577220917,0.022092990577220917,0.0005,0.36000001430511475,0.9741439819335938,0.9741439819335938
103,1.0,0.021683886647224426,0.021683886647224426,0.0005,0.36000001430511475,0.9765336513519287,0.9765336513519287
104,1.0,0.021011583507061005,0.021011583507061005,0.0005,0.36000001430511475,0.9788534045219421,0.9788534045219421
105,1.0,0.020746402442455292,0.020746402442455292,0.0005,0.36000001430511475,0.9807835221290588,0.9807835221290588
106,1.0,0.020244913175702095,0.020244913175702095,0.0005,0.36000001430511475,0.9824395775794983,0.9824395775794983
107,1.0,0.019787753000855446,0.019787753000855446,0.0005,0.36000001430511475,0.9839321970939636,0.9839321970939636
108,1.0,0.019459616392850876,0.019459616392850876,0.0005,0.36000001430511475,0.9859223365783691,0.9859223365783691
109,1.0,0.01902284286916256,0.01902284286916256,0.0005,0.36000001430511475,0.9883933067321777,0.9883933067321777
110,1.0,0.018637895584106445,0.018637895584106445,0.0005,0.36000001430511475,0.9905763268470764,0.9905763268470764
111,1.0,0.018284300342202187,0.018284300342202187,0.0005,0.36000001430511475,0.9921393394470215,0.9921393394470215
112,1.0,0.01788417436182499,0.01788417436182499,0.0005,0.36000001430511475,0.9937781691551208,0.9937781691551208
113,1.0,0.017583107575774193,0.017583107575774193,0.0005,0.36000001430511475,0.9956001043319702,0.9956001043319702
114,1.0,0.01719670556485653,0.01719670556485653,0.0005,0.36000001430511475,0.9977055191993713,0.9977055191993713
115,1.0,0.016889145597815514,0.016889145597815514,0.0005,0.36000001430511475,0.9993569254875183,0.9993569254875183
116,1.0,0.01658528484404087,0.01658528484404087,0.0005,0.36000001430511475,1.0004973411560059,1.0004973411560059
117,1.0,0.016266662627458572,0.016266662627458572,0.0005,0.36000001430511475,1.0016764402389526,1.0016764402389526
118,1.0,0.015982700511813164,0.015982700511813164,0.0005,0.36000001430511475,1.0033520460128784,1.0033520460128784
119,1.0,0.015669234097003937,0.015669234097003937,0.00025,0.36000001430511475,1.0043584108352661,1.0043584108352661
120,1.0,0.015528158284723759,0.015528158284723759,0.00025,0.36000001430511475,1.0052690505981445,1.0052690505981445
121,1.0,0.015385282225906849,0.015385282225906849,0.00025,0.36000001430511475,1.0061331987380981,1.0061331987380981
122,1.0,0.015231980942189693,0.015231980942189693,0.00025,0.36000001430511475,1.0069100856781006,1.0069100856781006
123,1.0,0.015105989761650562,0.015105989761650562,0.00025,0.36000001430511475,1.007524847984314,1.007524847984314
124,1.0,0.014977392740547657,0.014977392740547657,0.00025,0.36000001430511475,1.0080543756484985,1.0080543756484985
125,1.0,0.014846720732748508,0.014846720732748508,0.00025,0.36000001430511475,1.008518934249878,1.008518934249878
126,1.0,0.01470455527305603,0.01470455527305603,0.00025,0.36000001430511475,1.0090441703796387,1.0090441703796387
127,1.0,0.014589803293347359,0.014589803293347359,0.00025,0.36000001430511475,1.0095913410186768,1.0095913410186768
128,1.0,0.01446465216577053,0.01446465216577053,0.00025,0.36000001430511475,1.0101979970932007,1.0101979970932007
129,1.0,0.014343546703457832,0.014343546703457832,0.00025,0.36000001430511475,1.0107142925262451,1.0107142925262451
130,1.0,0.014217772521078587,0.014217772521078587,0.00025,0.36000001430511475,1.011093020439148,1.011093020439148
131,1.0,0.014110399410128593,0.014110399410128593,0.00025,0.36000001430511475,1.0114845037460327,1.0114845037460327
132,1.0,0.013993080705404282,0.013993080705404282,0.00025,0.36000001430511475,1.0119905471801758,1.0119905471801758
133,1.0,0.013871138915419579,0.013871138915419579,0.00025,0.36000001430511475,1.0126373767852783,1.0126373767852783
134,1.0,0.013762915506958961,0.013762915506958961,0.00025,0.36000001430511475,1.0132189989089966,1.0132189989089966
135,1.0,0.01365877315402031,0.01365877315402031,0.00025,0.36000001430511475,1.0136839151382446,1.0136839151382446
136,1.0,0.013541391119360924,0.013541391119360924,0.00025,0.36000001430511475,1.0142287015914917,1.0142287015914917
137,1.0,0.013433555141091347,0.013433555141091347,0.00025,0.36000001430511475,1.014666199684143,1.014666199684143
138,1.0,0.01332849357277155,0.01332849357277155,0.00025,0.36000001430511475,1.0153177976608276,1.0153177976608276
139,1.0,0.013222829438745975,0.013222829438745975,0.00025,0.36000001430511475,1.0159550905227661,1.0159550905227661
140,1.0,0.013124087825417519,0.013124087825417519,0.00025,0.36000001430511475,1.0166038274765015,1.0166038274765015
141,1.0,0.013017375022172928,0.013017375022172928,0.00025,0.36000001430511475,1.0172656774520874,1.0172656774520874
142,1.0,0.012920878827571869,0.012920878827571869,0.00025,0.36000001430511475,1.0179321765899658,1.0179321765899658
143,1.0,0.012818758375942707,0.012818758375942707,0.00025,0.36000001430511475,1.0184845924377441,1.0184845924377441
144,1.0,0.012721146456897259,0.012721146456897259,0.00025,0.36000001430511475,1.0190657377243042,1.0190657377243042
145,1.0,0.012627562507987022,0.012627562507987022,0.00025,0.36000001430511475,1.019748568534851,1.019748568534851
146,1.0,0.012530229985713959,0.012530229985713959,0.00025,0.36000001430511475,1.0204036235809326,1.0204036235809326
147,1.0,0.012438734993338585,0.012438734993338585,0.00025,0.36000001430511475,1.0211822986602783,1.0211822986602783
148,1.0,0.012348712421953678,0.012348712421953678,0.00025,0.36000001430511475,1.0219523906707764,1.0219523906707764
149,1.0,0.012258005328476429,0.012258005328476429,0.00025,0.36000001430511475,1.0227034091949463,1.0227034091949463
150,1.0,0.01216959860175848,0.01216959860175848,0.00025,0.36000001430511475,1.0235384702682495,1.0235384702682495
151,1.0,0.012079541571438313,0.012079541571438313,0.00025,0.36000001430511475,1.0242865085601807,1.0242865085601807
152,1.0,0.011993571184575558,0.011993571184575558,0.00025,0.36000001430511475,1.0252132415771484,1.0252132415771484
153,1.0,0.011903760023415089,0.011903760023415089,0.00025,0.36000001430511475,1.0260945558547974,1.0260945558547974
154,1.0,0.0118157509714365,0.0118157509714365,0.00025,0.36000001430511475,1.0269016027450562,1.0269016027450562
155,1.0,0.011732660233974457,0.011732660233974457,0.00025,0.36000001430511475,1.027848482131958,1.027848482131958
156,1.0,0.011647913604974747,0.011647913604974747,0.00025,0.36000001430511475,1.0288392305374146,1.0288392305374146
157,1.0,0.01156285684555769,0.01156285684555769,0.00025,0.36000001430511475,1.0299923419952393,1.0299923419952393
158,1.0,0.011481251567602158,0.011481251567602158,0.00025,0.36000001430511475,1.0311740636825562,1.0311740636825562
159,1.0,0.011399246752262115,0.011399246752262115,0.00025,0.36000001430511475,1.032307744026184,1.032307744026184
160,1.0,0.011321676895022392,0.011321676895022392,0.00025,0.36000001430511475,1.0335174798965454,1.0335174798965454
161,1.0,0.011243052780628204,0.011243052780628204,0.00025,0.36000001430511475,1.0347930192947388,1.0347930192947388
162,1.0,0.01116494182497263,0.01116494182497263,0.00025,0.36000001430511475,1.0360560417175293,1.0360560417175293
163,1.0,0.011086013168096542,0.011086013168096542,0.00025,0.36000001430511475,1.0372663736343384,1.0372663736343384
164,1.0,0.011008847504854202,0.011008847504854202,0.00025,0.36000001430511475,1.0385481119155884,1.0385481119155884
165,1.0,0.010930764488875866,0.010930764488875866,0.00025,0.36000001430511475,1.0397706031799316,1.0397706031799316
166,1.0,0.010857127606868744,0.010857127606868744,0.00025,0.36000001430511475,1.041103720664978,1.041103720664978
167,1.0,0.010781336575746536,0.010781336575746536,0.00025,0.36000001430511475,1.0424489974975586,1.0424489974975586
168,1.0,0.010708806104958057,0.010708806104958057,0.00025,0.36000001430511475,1.0438566207885742,1.0438566207885742
169,1.0,0.01063411682844162,0.01063411682844162,0.000125,0.36000001430511475,1.0448139905929565,1.0448139905929565
170,1.0,0.010597421787679195,0.010597421787679195,0.000125,0.36000001430511475,1.0457786321640015,1.0457786321640015
171,1.0,0.010563600808382034,0.010563600808382034,0.000125,0.36000001430511475,1.0467644929885864,1.0467644929885864
172,1.0,0.010524830780923367,0.010524830780923367,0.000125,0.36000001430511475,1.0477005243301392,1.0477005243301392
173,1.0,0.010489135049283504,0.010489135049283504,0.000125,0.36000001430511475,1.0488040447235107,1.0488040447235107
174,1.0,0.010447686538100243,0.010447686538100243,0.000125,0.36000001430511475,1.0498695373535156,1.0498695373535156
175,1.0,0.010414844378829002,0.010414844378829002,0.000125,0.36000001430511475,1.0507792234420776,1.0507792234420776
176,1.0,0.010382216423749924,0.010382216423749924,0.000125,0.36000001430511475,1.0518568754196167,1.0518568754196167
177,1.0,0.010344280861318111,0.010344280861318111,0.000125,0.36000001430511475,1.0529532432556152,1.0529532432556152
178,1.0,0.01030675508081913,0.01030675508081913,0.000125,0.36000001430511475,1.0540224313735962,1.0540224313735962
179,1.0,0.010268982499837875,0.010268982499837875,0.000125,0.36000001430511475,1.0550942420959473,1.0550942420959473
180,1.0,0.010234772227704525,0.010234772227704525,0.000125,0.36000001430511475,1.0561999082565308,1.0561999082565308
181,1.0,0.010198969393968582,0.010198969393968582,0.000125,0.36000001430511475,1.057395577430725,1.057395577430725
182,1.0,0.010165264829993248,0.010165264829993248,0.000125,0.36000001430511475,1.0584090948104858,1.0584090948104858
183,1.0,0.010135143995285034,0.010135143995285034,0.000125,0.36000001430511475,1.0595507621765137,1.0595507621765137
184,1.0,0.010100822895765305,0.010100822895765305,0.000125,0.36000001430511475,1.0607566833496094,1.0607566833496094
185,1.0,0.010065308772027493,0.010065308772027493,0.000125,0.36000001430511475,1.0618122816085815,1.0618122816085815
186,1.0,0.01002949383109808,0.01002949383109808,0.000125,0.36000001430511475,1.0629525184631348,1.0629525184631348
187,1.0,0.009995570406317711,0.009995570406317711,0.000125,0.36000001430511475,1.0641095638275146,1.0641095638275146
188,1.0,0.009963108226656914,0.009963108226656914,0.000125,0.36000001430511475,1.0653042793273926,1.0653042793273926
189,1.0,0.009927203878760338,0.009927203878760338,0.000125,0.36000001430511475,1.066522479057312,1.066522479057312
190,1.0,0.009896289557218552,0.009896289557218552,0.000125,0.36000001430511475,1.0677475929260254,1.0677475929260254
191,1.0,0.009864427149295807,0.009864427149295807,0.000125,0.36000001430511475,1.0689536333084106,1.0689536333084106
192,1.0,0.009829062037169933,0.009829062037169933,0.000125,0.36000001430511475,1.0701335668563843,1.0701335668563843
193,1.0,0.009795046411454678,0.009795046411454678,0.000125,0.36000001430511475,1.0714240074157715,1.0714240074157715
194,1.0,0.009763610549271107,0.009763610549271107,0.000125,0.36000001430511475,1.0727826356887817,1.0727826356887817
195,1.0,0.009729833342134953,0.009729833342134953,0.000125,0.36000001430511475,1.074101209640503,1.074101209640503
196,1.0,0.009695764631032944,0.009695764631032944,0.000125,0.36000001430511475,1.0754823684692383,1.0754823684692383
197,1.0,0.00966116227209568,0.00966116227209568,0.000125,0.36000001430511475,1.0767139196395874,1.0767139196395874
198,1.0,0.009630930610001087,0.009630930610001087,0.000125,0.36000001430511475,1.0779746770858765,1.0779746770858765
199,1.0,0.009596169926226139,0.009596169926226139,0.000125,0.36000001430511475,1.0793278217315674,1.0793278217315674
200,1.0,0.009565381333231926,0.009565381333231926,0.000125,0.36000001430511475,1.0806939601898193,1.0806939601898193
201,1.0,0.00953332707285881,0.00953332707285881,0.000125,0.36000001430511475,1.082011103630066,1.082011103630066
202,1.0,0.009504521265625954,0.009504521265625954,0.000125,0.36000001430511475,1.0832207202911377,1.0832207202911377
203,1.0,0.009473364800214767,0.009473364800214767,0.000125,0.36000001430511475,1.0845774412155151,1.0845774412155151
204,1.0,0.009439877234399319,0.009439877234399319,0.000125,0.36000001430511475,1.0859153270721436,1.0859153270721436
205,1.0,0.009408977814018726,0.009408977814018726,0.000125,0.36000001430511475,1.087159514427185,1.087159514427185
206,1.0,0.009377152658998966,0.009377152658998966,0.000125,0.36000001430511475,1.088487982749939,1.088487982749939
207,1.0,0.009345568716526031,0.009345568716526031,0.000125,0.36000001430511475,1.0898720026016235,1.0898720026016235
208,1.0,0.009314022958278656,0.009314022958278656,0.000125,0.36000001430511475,1.0912065505981445,1.0912065505981445
209,1.0,0.009281005710363388,0.009281005710363388,0.000125,0.36000001430511475,1.0926098823547363,1.0926098823547363
210,1.0,0.009253420867025852,0.009253420867025852,0.000125,0.36000001430511475,1.0940356254577637,1.0940356254577637
211,1.0,0.009222438558936119,0.009222438558936119,0.000125,0.36000001430511475,1.0955342054367065,1.0955342054367065
212,1.0,0.009193971753120422,0.009193971753120422,0.000125,0.36000001430511475,1.0968564748764038,1.0968564748764038
213,1.0,0.009161213412880898,0.009161213412880898,0.000125,0.36000001430511475,1.0980215072631836,1.0980215072631836
214,1.0,0.00913179200142622,0.00913179200142622,0.000125,0.36000001430511475,1.0993841886520386,1.0993841886520386
215,1.0,0.009099447168409824,0.009099447168409824,0.000125,0.36000001430511475,1.1009348630905151,1.1009348630905151
216,1.0,0.00906818825751543,0.00906818825751543,0.000125,0.36000001430511475,1.1025183200836182,1.1025183200836182
217,1.0,0.009039822034537792,0.009039822034537792,0.000125,0.36000001430511475,1.1039540767669678,1.1039540767669678
218,1.0,0.009007795713841915,0.009007795713841915,0.000125,0.36000001430511475,1.105480670928955,1.105480670928955
219,1.0,0.008980000391602516,0.008980000391602516,1e-04,0.36000001430511475,1.106882095336914,1.106882095336914
220,1.0,0.008955279365181923,0.008955279365181923,1e-04,0.36000001430511475,1.1081900596618652,1.1081900596618652
221,1.0,0.008931552059948444,0.008931552059948444,1e-04,0.36000001430511475,1.1096348762512207,1.1096348762512207
222,1.0,0.008908014744520187,0.008908014744520187,1e-04,0.36000001430511475,1.1109390258789062,1.1109390258789062
223,1.0,0.008885622024536133,0.008885622024536133,1e-04,0.36000001430511475,1.112260103225708,1.112260103225708
224,1.0,0.008863871917128563,0.008863871917128563,1e-04,0.36000001430511475,1.1134682893753052,1.1134682893753052
225,1.0,0.00884144939482212,0.00884144939482212,1e-04,0.36000001430511475,1.114946722984314,1.114946722984314
226,1.0,0.008818823844194412,0.008818823844194412,1e-04,0.36000001430511475,1.116470456123352,1.116470456123352
227,1.0,0.008791884407401085,0.008791884407401085,1e-04,0.36000001430511475,1.1181000471115112,1.1181000471115112
228,1.0,0.008769801817834377,0.008769801817834377,1e-04,0.36000001430511475,1.1194485425949097,1.1194485425949097
229,1.0,0.008745219558477402,0.008745219558477402,1e-04,0.36000001430511475,1.1207219362258911,1.1207219362258911
230,1.0,0.008721994236111641,0.008721994236111641,1e-04,0.36000001430511475,1.122080683708191,1.122080683708191
231,1.0,0.008697368204593658,0.008697368204593658,1e-04,0.36000001430511475,1.1232938766479492,1.1232938766479492
232,1.0,0.008675433695316315,0.008675433695316315,1e-04,0.36000001430511475,1.124832272529602,1.124832272529602
233,1.0,0.008656620979309082,0.008656620979309082,1e-04,0.36000001430511475,1.126428246498108,1.126428246498108
234,1.0,0.00863263476639986,0.00863263476639986,1e-04,0.36000001430511475,1.1279820203781128,1.1279820203781128
235,1.0,0.008611234836280346,0.008611234836280346,1e-04,0.36000001430511475,1.1291918754577637,1.1291918754577637
236,1.0,0.008590083569288254,0.008590083569288254,1e-04,0.36000001430511475,1.1306720972061157,1.1306720972061157
237,1.0,0.008566451258957386,0.008566451258957386,1e-04,0.36000001430511475,1.1322369575500488,1.1322369575500488
238,1.0,0.008544008247554302,0.008544008247554302,1e-04,0.36000001430511475,1.1337456703186035,1.1337456703186035
239,1.0,0.008521736599504948,0.008521736599504948,1e-04,0.36000001430511475,1.1350666284561157,1.1350666284561157
240,1.0,0.00850008800625801,0.00850008800625801,1e-04,0.36000001430511475,1.136474370956421,1.136474370956421
241,1.0,0.008476867340505123,0.008476867340505123,1e-04,0.36000001430511475,1.1380764245986938,1.1380764245986938
242,1.0,0.008456404320895672,0.008456404320895672,1e-04,0.36000001430511475,1.1393697261810303,1.1393697261810303
243,1.0,0.008432995527982712,0.008432995527982712,1e-04,0.36000001430511475,1.1408084630966187,1.1408084630966187
244,1.0,0.008411554619669914,0.008411554619669914,1e-04,0.36000001430511475,1.142452597618103,1.142452597618103
245,1.0,0.008387362584471703,0.008387362584471703,1e-04,0.36000001430511475,1.1439098119735718,1.1439098119735718
246,1.0,0.008367693051695824,0.008367693051695824,1e-04,0.36000001430511475,1.145468831062317,1.145468831062317
247,1.0,0.008344775065779686,0.008344775065779686,1e-04,0.36000001430511475,1.146864891052246,1.146864891052246
248,1.0,0.008319917134940624,0.008319917134940624,1e-04,0.36000001430511475,1.1480669975280762,1.1480669975280762
249,1.0,0.008298679254949093,0.008298679254949093,1e-04,0.36000001430511475,1.1494392156600952,1.1494392156600952
250,1.0,0.008275642059743404,0.008275642059743404,1e-04,0.36000001430511475,1.150911569595337,1.150911569595337
251,1.0,0.0082543371245265,0.0082543371245265,1e-04,0.36000001430511475,1.1525931358337402,1.1525931358337402
252,1.0,0.008233359083533287,0.008233359083533287,1e-04,0.36000001430511475,1.1540558338165283,1.1540558338165283
253,1.0,0.008212048560380936,0.008212048560380936,1e-04,0.36000001430511475,1.1557457447052002,1.1557457447052002
254,1.0,0.008190535008907318,0.008190535008907318,1e-04,0.36000001430511475,1.1572738885879517,1.1572738885879517
255,1.0,0.008169198408722878,0.008169198408722878,1e-04,0.36000001430511475,1.1586142778396606,1.1586142778396606
256,1.0,0.008146236650645733,0.008146236650645733,1e-04,0.36000001430511475,1.1601771116256714,1.1601771116256714
257,1.0,0.008125808089971542,0.008125808089971542,1e-04,0.36000001430511475,1.1618196964263916,1.1618196964263916
258,1.0,0.00810207612812519,0.00810207612812519,1e-04,0.36000001430511475,1.1634058952331543,1.1634058952331543
259,1.0,0.008081717416644096,0.008081717416644096,1e-04,0.36000001430511475,1.1649249792099,1.1649249792099
260,1.0,0.008059811778366566,0.008059811778366566,1e-04,0.36000001430511475,1.166265606880188,1.166265606880188
261,1.0,0.008039206266403198,0.008039206266403198,1e-04,0.36000001430511475,1.1675870418548584,1.1675870418548584
262,1.0,0.008019905537366867,0.008019905537366867,1e-04,0.36000001430511475,1.1690880060195923,1.1690880060195923
263,1.0,0.00799788348376751,0.00799788348376751,1e-04,0.36000001430511475,1.170770287513733,1.170770287513733
264,1.0,0.007975035347044468,0.007975035347044468,1e-04,0.36000001430511475,1.1722633838653564,1.1722633838653564
265,1.0,0.007955672219395638,0.007955672219395638,1e-04,0.36000001430511475,1.1737600564956665,1.1737600564956665
266,1.0,0.007934771478176117,0.007934771478176117,1e-04,0.36000001430511475,1.1750214099884033,1.1750214099884033
267,1.0,0.007913436740636826,0.007913436740636826,1e-04,0.36000001430511475,1.1761741638183594,1.1761741638183594
268,1.0,0.00789296068251133,0.00789296068251133,1e-04,0.36000001430511475,1.177441954612732,1.177441954612732
269,1.0,0.007870513945817947,0.007870513945817947,1e-04,0.36000001430511475,1.1791250705718994,1.1791250705718994
270,1.0,0.00785020925104618,0.00785020925104618,1e-04,0.36000001430511475,1.1806813478469849,1.1806813478469849
271,1.0,0.00782720372080803,0.00782720372080803,1e-04,0.36000001430511475,1.1821339130401611,1.1821339130401611
272,1.0,0.0078095318749547005,0.0078095318749547005,1e-04,0.36000001430511475,1.183750867843628,1.183750867843628
273,1.0,0.0077877710573375225,0.0077877710573375225,1e-04,0.36000001430511475,1.1852017641067505,1.1852017641067505
274,1.0,0.007768074981868267,0.007768074981868267,1e-04,0.36000001430511475,1.1866666078567505,1.1866666078567505
275,1.0,0.007747809402644634,0.007747809402644634,1e-04,0.36000001430511475,1.1879326105117798,1.1879326105117798
276,1.0,0.0077286516316235065,0.0077286516316235065,1e-04,0.36000001430511475,1.1894878149032593,1.1894878149032593
277,1.0,0.007708976976573467,0.007708976976573467,1e-04,0.36000001430511475,1.1910169124603271,1.1910169124603271
278,1.0,0.007686832454055548,0.007686832454055548,1e-04,0.36000001430511475,1.192266821861267,1.192266821861267
279,1.0,0.007667226251214743,0.007667226251214743,1e-04,0.36000001430511475,1.1938035488128662,1.1938035488128662
280,1.0,0.007645872887223959,0.007645872887223959,1e-04,0.36000001430511475,1.1951836347579956,1.1951836347579956
281,1.0,0.007627307903021574,0.007627307903021574,1e-04,0.36000001430511475,1.1962238550186157,1.1962238550186157
282,1.0,0.007607737556099892,0.007607737556099892,1e-04,0.36000001430511475,1.1974515914916992,1.1974515914916992
283,1.0,0.0075873760506510735,0.0075873760506510735,1e-04,0.36000001430511475,1.1990303993225098,1.1990303993225098
284,1.0,0.0075677442364394665,0.0075677442364394665,1e-04,0.36000001430511475,1.2004817724227905,1.2004817724227905
285,1.0,0.007547587621957064,0.007547587621957064,1e-04,0.36000001430511475,1.201709270477295,1.201709270477295
286,1.0,0.007530576549470425,0.007530576549470425,1e-04,0.36000001430511475,1.2031792402267456,1.2031792402267456
287,1.0,0.007512052543461323,0.007512052543461323,1e-04,0.36000001430511475,1.204420566558838,1.204420566558838
288,1.0,0.007489604875445366,0.007489604875445366,1e-04,0.36000001430511475,1.2055147886276245,1.2055147886276245
289,1.0,0.007471065036952496,0.007471065036952496,1e-04,0.36000001430511475,1.2064265012741089,1.2064265012741089
290,1.0,0.007452319376170635,0.007452319376170635,1e-04,0.36000001430511475,1.2080942392349243,1.2080942392349243
291,1.0,0.007432993501424789,0.007432993501424789,1e-04,0.36000001430511475,1.2094422578811646,1.2094422578811646
292,1.0,0.007412369828671217,0.007412369828671217,1e-04,0.36000001430511475,1.2107024192810059,1.2107024192810059
293,1.0,0.007392318453639746,0.007392318453639746,1e-04,0.36000001430511475,1.2119629383087158,1.2119629383087158
294,1.0,0.007373797707259655,0.007373797707259655,1e-04,0.36000001430511475,1.2131675481796265,1.2131675481796265
295,1.0,0.0073549808003008366,0.0073549808003008366,1e-04,0.36000001430511475,1.2146258354187012,1.2146258354187012
296,1.0,0.007335893344134092,0.007335893344134092,1e-04,0.36000001430511475,1.215685248374939,1.215685248374939
297,1.0,0.007319307420402765,0.007319307420402765,1e-04,0.36000001430511475,1.2172083854675293,1.2172083854675293
298,1.0,0.007299736142158508,0.007299736142158508,1e-04,0.36000001430511475,1.2186989784240723,1.2186989784240723
299,1.0,0.0072809848934412,0.0072809848934412,1e-04,0.36000001430511475,1.220206618309021,1.220206618309021
300,1.0,0.0072620343416929245,0.0072620343416929245,1e-04,0.36000001430511475,1.2210564613342285,1.2210564613342285
301,1.0,0.007243964821100235,0.007243964821100235,1e-04,0.36000001430511475,1.2221521139144897,1.2221521139144897
302,1.0,0.007226369343698025,0.007226369343698025,1e-04,0.36000001430511475,1.2227568626403809,1.2227568626403809
303,1.0,0.0072078402154147625,0.0072078402154147625,1e-04,0.36000001430511475,1.2234808206558228,1.2234808206558228
304,1.0,0.007189503405243158,0.007189503405243158,1e-04,0.36000001430511475,1.2250545024871826,1.2250545024871826
305,1.0,0.007171044126152992,0.007171044126152992,1e-04,0.36000001430511475,1.2265660762786865,1.2265660762786865
306,1.0,0.007152416743338108,0.007152416743338108,1e-04,0.36000001430511475,1.227869987487793,1.227869987487793
307,1.0,0.007133881561458111,0.007133881561458111,1e-04,0.36000001430511475,1.2289586067199707,1.2289586067199707
308,1.0,0.007115465588867664,0.007115465588867664,1e-04,0.36000001430511475,1.230306625366211,1.230306625366211
309,1.0,0.007098583038896322,0.007098583038896322,1e-04,0.36000001430511475,1.2313259840011597,1.2313259840011597
310,1.0,0.007079884875565767,0.007079884875565767,1e-04,0.36000001430511475,1.232215166091919,1.232215166091919
311,1.0,0.007061978802084923,0.007061978802084923,1e-04,0.36000001430511475,1.233256220817566,1.233256220817566
312,1.0,0.007042893674224615,0.007042893674224615,1e-04,0.36000001430511475,1.233823537826538,1.233823537826538
313,1.0,0.007025939878076315,0.007025939878076315,1e-04,0.36000001430511475,1.2342966794967651,1.2342966794967651
314,1.0,0.007007145788520575,0.007007145788520575,1e-04,0.36000001430511475,1.234974980354309,1.234974980354309
315,1.0,0.006988846696913242,0.006988846696913242,1e-04,0.36000001430511475,1.2355711460113525,1.2355711460113525
316,1.0,0.006972247734665871,0.006972247734665871,1e-04,0.36000001430511475,1.236521601676941,1.236521601676941
317,1.0,0.006954290438443422,0.006954290438443422,1e-04,0.36000001430511475,1.2376972436904907,1.2376972436904907
318,1.0,0.00693471310660243,0.00693471310660243,1e-04,0.36000001430511475,1.2384419441223145,1.2384419441223145
319,1.0,0.0069174873642623425,0.0069174873642623425,1e-04,0.36000001430511475,1.2390302419662476,1.2390302419662476
320,1.0,0.006900839973241091,0.006900839973241091,1e-04,0.36000001430511475,1.2394593954086304,1.2394593954086304
321,1.0,0.006882763467729092,0.006882763467729092,1e-04,0.36000001430511475,1.2399309873580933,1.2399309873580933
322,1.0,0.006866465788334608,0.006866465788334608,1e-04,0.36000001430511475,1.2411586046218872,1.2411586046218872
323,1.0,0.006848144344985485,0.006848144344985485,1e-04,0.36000001430511475,1.242518424987793,1.242518424987793
324,1.0,0.006830934435129166,0.006830934435129166,1e-04,0.36000001430511475,1.2438380718231201,1.2438380718231201
325,1.0,0.00681299576535821,0.00681299576535821,1e-04,0.36000001430511475,1.2445094585418701,1.2445094585418701
326,1.0,0.006793392822146416,0.006793392822146416,1e-04,0.36000001430511475,1.2449612617492676,1.2449612617492676
327,1.0,0.006777228321880102,0.006777228321880102,1e-04,0.36000001430511475,1.245468258857727,1.245468258857727
328,1.0,0.006760369520634413,0.006760369520634413,1e-04,0.36000001430511475,1.2462395429611206,1.2462395429611206
329,1.0,0.006743224803358316,0.006743224803358316,1e-04,0.36000001430511475,1.2470659017562866,1.2470659017562866
330,1.0,0.006726972293108702,0.006726972293108702,1e-04,0.36000001430511475,1.2475618124008179,1.2475618124008179
331,1.0,0.006709618493914604,0.006709618493914604,1e-04,0.36000001430511475,1.2479310035705566,1.2479310035705566
332,1.0,0.006694946438074112,0.006694946438074112,1e-04,0.36000001430511475,1.248348355293274,1.248348355293274
333,1.0,0.006678371224552393,0.006678371224552393,1e-04,0.36000001430511475,1.2493313550949097,1.2493313550949097
334,1.0,0.006661043036729097,0.006661043036729097,1e-04,0.36000001430511475,1.2499266862869263,1.2499266862869263
335,1.0,0.006642267573624849,0.006642267573624849,1e-04,0.36000001430511475,1.2507392168045044,1.2507392168045044
336,1.0,0.006626717280596495,0.006626717280596495,1e-04,0.36000001430511475,1.251214861869812,1.251214861869812
337,1.0,0.00661063427105546,0.00661063427105546,1e-04,0.36000001430511475,1.2515486478805542,1.2515486478805542
338,1.0,0.006594924256205559,0.006594924256205559,1e-04,0.36000001430511475,1.2518258094787598,1.2518258094787598
339,1.0,0.00657537579536438,0.00657537579536438,1e-04,0.36000001430511475,1.2531365156173706,1.2531365156173706
340,1.0,0.006559721194207668,0.006559721194207668,1e-04,0.36000001430511475,1.2533682584762573,1.2533682584762573
341,1.0,0.006542357616126537,0.006542357616126537,1e-04,0.36000001430511475,1.253792405128479,1.253792405128479
342,1.0,0.006525434087961912,0.006525434087961912,1e-04,0.36000001430511475,1.2544535398483276,1.2544535398483276
343,1.0,0.006511510815471411,0.006511510815471411,1e-04,0.36000001430511475,1.2546454668045044,1.2546454668045044
344,1.0,0.006494294386357069,0.006494294386357069,1e-04,0.36000001430511475,1.2550629377365112,1.2550629377365112
345,1.0,0.006478750146925449,0.006478750146925449,1e-04,0.36000001430511475,1.2556841373443604,1.2556841373443604
346,1.0,0.006463224999606609,0.006463224999606609,1e-04,0.36000001430511475,1.2553012371063232,1.2553012371063232
347,1.0,0.006447348743677139,0.006447348743677139,1e-04,0.36000001430511475,1.254726529121399,1.254726529121399
348,1.0,0.0064318543300032616,0.0064318543300032616,1e-04,0.36000001430511475,1.254915714263916,1.254915714263916
349,1.0,0.006414671428501606,0.006414671428501606,1e-04,0.36000001430511475,1.2549208402633667,1.2549208402633667
350,1.0,0.0063993316143751144,0.0063993316143751144,1e-04,0.36000001430511475,1.2553277015686035,1.2553277015686035
351,1.0,0.006386494264006615,0.006386494264006615,1e-04,0.36000001430511475,1.2557215690612793,1.2557215690612793
352,1.0,0.006369347684085369,0.006369347684085369,1e-04,0.36000001430511475,1.2547916173934937,1.2547916173934937
353,1.0,0.0063544632866978645,0.0063544632866978645,1e-04,0.36000001430511475,1.2537753582000732,1.2537753582000732
354,1.0,0.006337917875498533,0.006337917875498533,1e-04,0.36000001430511475,1.2531459331512451,1.2531459331512451
355,1.0,0.006320603657513857,0.006320603657513857,1e-04,0.36000001430511475,1.25387442111969,1.25387442111969
356,1.0,0.0063047404401004314,0.0063047404401004314,1e-04,0.36000001430511475,1.2535773515701294,1.2535773515701294
357,1.0,0.0062895361334085464,0.0062895361334085464,1e-04,0.36000001430511475,1.2533519268035889,1.2533519268035889
358,1.0,0.0062721804715693,0.0062721804715693,1e-04,0.36000001430511475,1.2538517713546753,1.2538517713546753
359,1.0,0.00625585438683629,0.00625585438683629,1e-04,0.36000001430511475,1.2530243396759033,1.2530243396759033
360,1.0,0.0062401918694376945,0.0062401918694376945,1e-04,0.36000001430511475,1.2517635822296143,1.2517635822296143
361,1.0,0.006227371748536825,0.006227371748536825,1e-04,0.36000001430511475,1.250625729560852,1.250625729560852
362,1.0,0.006212588399648666,0.006212588399648666,1e-04,0.36000001430511475,1.2503851652145386,1.2503851652145386
363,1.0,0.00619608024135232,0.00619608024135232,1e-04,0.36000001430511475,1.2498328685760498,1.2498328685760498
364,1.0,0.006181112956255674,0.006181112956255674,1e-04,0.3700000047683716,1.2492061853408813,1.2492061853408813
365,1.0,0.006165762431919575,0.006165762431919575,1e-04,0.3700000047683716,1.248319387435913,1.248319387435913
366,1.0,0.006150990258902311,0.006150990258902311,1e-04,0.3700000047683716,1.2470682859420776,1.2470682859420776
367,1.0,0.0061352248303592205,0.0061352248303592205,1e-04,0.3700000047683716,1.2466511726379395,1.2466511726379395
368,1.0,0.006120620761066675,0.006120620761066675,1e-04,0.3700000047683716,1.247193694114685,1.247193694114685
369,1.0,0.006106263026595116,0.006106263026595116,1e-04,0.3700000047683716,1.2467371225357056,1.2467371225357056
370,1.0,0.006091657094657421,0.006091657094657421,1e-04,0.3700000047683716,1.2451138496398926,1.2451138496398926
371,1.0,0.006077040918171406,0.006077040918171406,1e-04,0.3700000047683716,1.2450003623962402,1.2450003623962402
372,1.0,0.006059566512703896,0.006059566512703896,1e-04,0.3700000047683716,1.244171142578125,1.244171142578125
373,1.0,0.00604537408798933,0.00604537408798933,1e-04,0.3700000047683716,1.2426279783248901,1.2426279783248901
374,1.0,0.006031544413417578,0.006031544413417578,1e-04,0.3700000047683716,1.2413914203643799,1.2413914203643799
375,1.0,0.006017014384269714,0.006017014384269714,1e-04,0.3700000047683716,1.2409117221832275,1.2409117221832275
376,1.0,0.006000865716487169,0.006000865716487169,1e-04,0.3700000047683716,1.2393624782562256,1.2393624782562256
377,1.0,0.005985176656395197,0.005985176656395197,1e-04,0.3700000047683716,1.2376948595046997,1.2376948595046997
378,1.0,0.005970621015876532,0.005970621015876532,1e-04,0.3700000047683716,1.2371833324432373,1.2371833324432373
379,1.0,0.005956569686532021,0.005956569686532021,1e-04,0.3700000047683716,1.234987497329712,1.234987497329712
380,1.0,0.0059416950680315495,0.0059416950680315495,1e-04,0.3700000047683716,1.232700228691101,1.232700228691101
381,1.0,0.005924867931753397,0.005924867931753397,1e-04,0.3700000047683716,1.2318713665008545,1.2318713665008545
382,1.0,0.005912064108997583,0.005912064108997583,1e-04,0.3700000047683716,1.2296894788742065,1.2296894788742065
383,1.0,0.00589696504175663,0.00589696504175663,1e-04,0.3700000047683716,1.2263970375061035,1.2263970375061035
384,1.0,0.005881201010197401,0.005881201010197401,1e-04,0.3700000047683716,1.2250661849975586,1.2250661849975586
385,1.0,0.005863779224455357,0.005863779224455357,1e-04,0.3700000047683716,1.2246699333190918,1.2246699333190918
386,1.0,0.005849530920386314,0.005849530920386314,1e-04,0.3700000047683716,1.2223443984985352,1.2223443984985352
387,1.0,0.005835186690092087,0.005835186690092087,1e-04,0.3700000047683716,1.219404935836792,1.219404935836792
388,1.0,0.005821814760565758,0.005821814760565758,1e-04,0.3700000047683716,1.2177467346191406,1.2177467346191406
389,1.0,0.005807387176901102,0.005807387176901102,1e-04,0.3700000047683716,1.2154327630996704,1.2154327630996704
390,1.0,0.005793457850813866,0.005793457850813866,1e-04,0.3700000047683716,1.2119250297546387,1.2119250297546387
391,1.0,0.005778770428150892,0.005778770428150892,1e-04,0.3700000047683716,1.2115299701690674,1.2115299701690674
392,1.0,0.005764233414083719,0.005764233414083719,1e-04,0.3700000047683716,1.2109366655349731,1.2109366655349731
393,1.0,0.005750820506364107,0.005750820506364107,1e-04,0.3700000047683716,1.2091188430786133,1.2091188430786133
394,1.0,0.005738077685236931,0.005738077685236931,1e-04,0.3700000047683716,1.204252004623413,1.204252004623413
395,1.0,0.0057232738472521305,0.0057232738472521305,1e-04,0.3700000047683716,1.2008044719696045,1.2008044719696045
396,1.0,0.00570786464959383,0.00570786464959383,1e-04,0.3700000047683716,1.1995019912719727,1.1995019912719727
397,1.0,0.005693801678717136,0.005693801678717136,1e-04,0.3700000047683716,1.1975436210632324,1.1975436210632324
398,1.0,0.0056805480271577835,0.0056805480271577835,1e-04,0.3700000047683716,1.1960132122039795,1.1960132122039795
399,1.0,0.005667970050126314,0.005667970050126314,1e-04,0.3700000047683716,1.1937594413757324,1.1937594413757324
400,1.0,0.005653674714267254,0.005653674714267254,1e-04,0.3700000047683716,1.1905781030654907,1.1905781030654907
401,1.0,0.00563909113407135,0.00563909113407135,1e-04,0.3700000047683716,1.1876360177993774,1.1876360177993774
402,1.0,0.005626206286251545,0.005626206286251545,1e-04,0.3700000047683716,1.1846717596054077,1.1846717596054077
403,1.0,0.005613918881863356,0.005613918881863356,1e-04,0.3700000047683716,1.1831316947937012,1.1831316947937012
404,1.0,0.005598806776106358,0.005598806776106358,1e-04,0.3700000047683716,1.1796265840530396,1.1796265840530396
405,1.0,0.005583435762673616,0.005583435762673616,1e-04,0.3700000047683716,1.1768079996109009,1.1768079996109009
406,1.0,0.005569946952164173,0.005569946952164173,1e-04,0.3700000047683716,1.1745285987854004,1.1745285987854004
407,1.0,0.005557526834309101,0.005557526834309101,1e-04,0.3700000047683716,1.1709604263305664,1.1709604263305664
408,1.0,0.005543234758079052,0.005543234758079052,1e-04,0.3700000047683716,1.1660056114196777,1.1660056114196777
409,1.0,0.005530505906790495,0.005530505906790495,1e-04,0.3700000047683716,1.1624361276626587,1.1624361276626587
410,1.0,0.00551997683942318,0.00551997683942318,1e-04,0.3700000047683716,1.1598008871078491,1.1598008871078491
411,1.0,0.00550555344671011,0.00550555344671011,1e-04,0.3700000047683716,1.1575406789779663,1.1575406789779663
412,1.0,0.005492962431162596,0.005492962431162596,1e-04,0.3700000047683716,1.1555606126785278,1.1555606126785278
413,1.0,0.00547907967120409,0.00547907967120409,1e-04,0.3700000047683716,1.1527308225631714,1.1527308225631714
414,1.0,0.005465826950967312,0.005465826950967312,1e-04,0.3700000047683716,1.1482487916946411,1.1482487916946411
415,1.0,0.005453469231724739,0.005453469231724739,1e-04,0.3700000047683716,1.143576979637146,1.143576979637146
416,1.0,0.005441634450107813,0.005441634450107813,1e-04,0.3700000047683716,1.1402465105056763,1.1402465105056763
417,1.0,0.005427411291748285,0.005427411291748285,1e-04,0.3700000047683716,1.138260841369629,1.138260841369629
418,1.0,0.00541461817920208,0.00541461817920208,1e-04,0.3700000047683716,1.1358733177185059,1.1358733177185059
419,1.0,0.005403471179306507,0.005403471179306507,1e-04,0.3700000047683716,1.133662223815918,1.133662223815918
420,1.0,0.005389033351093531,0.005389033351093531,1e-04,0.3700000047683716,1.1305443048477173,1.1305443048477173
421,1.0,0.005377648863941431,0.005377648863941431,1e-04,0.3700000047683716,1.126477837562561,1.126477837562561
422,1.0,0.005365297198295593,0.005365297198295593,1e-04,0.3700000047683716,1.1236822605133057,1.1236822605133057
423,1.0,0.005352552980184555,0.005352552980184555,1e-04,0.3700000047683716,1.1205862760543823,1.1205862760543823
424,1.0,0.005339722614735365,0.005339722614735365,1e-04,0.3700000047683716,1.1175475120544434,1.1175475120544434
425,1.0,0.005325768608599901,0.005325768608599901,1e-04,0.3700000047683716,1.1156055927276611,1.1156055927276611
426,1.0,0.0053122080862522125,0.0053122080862522125,1e-04,0.3700000047683716,1.1116759777069092,1.1116759777069092
427,1.0,0.005299773067235947,0.005299773067235947,1e-04,0.3700000047683716,1.1070046424865723,1.1070046424865723
428,1.0,0.00528727238997817,0.00528727238997817,1e-04,0.3700000047683716,1.1048524379730225,1.1048524379730225
429,1.0,0.005275121424347162,0.005275121424347162,1e-04,0.3700000047683716,1.1009469032287598,1.1009469032287598
430,1.0,0.005263015162199736,0.005263015162199736,1e-04,0.3700000047683716,1.0956804752349854,1.0956804752349854
431,1.0,0.005250044632703066,0.005250044632703066,1e-04,0.3700000047683716,1.0925793647766113,1.0925793647766113
432,1.0,0.005238302517682314,0.005238302517682314,1e-04,0.3700000047683716,1.0890601873397827,1.0890601873397827
433,1.0,0.005224975291639566,0.005224975291639566,1e-04,0.3700000047683716,1.0847282409667969,1.0847282409667969
434,1.0,0.005213709082454443,0.005213709082454443,1e-04,0.3700000047683716,1.0798728466033936,1.0798728466033936
435,1.0,0.005201222840696573,0.005201222840696573,1e-04,0.3700000047683716,1.0778546333312988,1.0778546333312988
436,1.0,0.0051883249543607235,0.0051883249543607235,1e-04,0.3700000047683716,1.074353814125061,1.074353814125061
437,1.0,0.005177295301109552,0.005177295301109552,1e-04,0.3700000047683716,1.0699665546417236,1.0699665546417236
438,1.0,0.00516554107889533,0.00516554107889533,1e-04,0.3700000047683716,1.0659003257751465,1.0659003257751465
439,1.0,0.005153443664312363,0.005153443664312363,1e-04,0.3700000047683716,1.0592414140701294,1.0592414140701294
440,1.0,0.005141665227711201,0.005141665227711201,1e-04,0.3700000047683716,1.0550031661987305,1.0550031661987305
441,1.0,0.00512880040332675,0.00512880040332675,1e-04,0.3700000047683716,1.0518909692764282,1.0518909692764282
442,1.0,0.005117413587868214,0.005117413587868214,1e-04,0.3700000047683716,1.0472872257232666,1.0472872257232666
443,1.0,0.0051056514494121075,0.0051056514494121075,1e-04,0.3700000047683716,1.0438576936721802,1.0438576936721802
444,1.0,0.005092586390674114,0.005092586390674114,1e-04,0.3700000047683716,1.0414865016937256,1.0414865016937256
445,1.0,0.00508113345131278,0.00508113345131278,1e-04,0.3799999952316284,1.037196397781372,1.037196397781372
446,1.0,0.0050685834139585495,0.0050685834139585495,1e-04,0.3799999952316284,1.0318353176116943,1.0318353176116943
447,1.0,0.005056609399616718,0.005056609399616718,1e-04,0.38999998569488525,1.027105689048767,1.027105689048767
448,1.0,0.005044789984822273,0.005044789984822273,1e-04,0.38999998569488525,1.0212416648864746,1.0212416648864746
449,1.0,0.005033375229686499,0.005033375229686499,1e-04,0.38999998569488525,1.0197547674179077,1.0197547674179077
450,1.0,0.005020232405513525,0.005020232405513525,1e-04,0.4000000059604645,1.0179153680801392,1.0179153680801392
451,1.0,0.005008582025766373,0.005008582025766373,1e-04,0.4000000059604645,1.014080286026001,1.014080286026001
452,1.0,0.004996256437152624,0.004996256437152624,1e-04,0.4000000059604645,1.009342908859253,1.009342908859253
453,1.0,0.004984724801033735,0.004984724801033735,1e-04,0.4000000059604645,1.0069122314453125,1.0069122314453125
454,1.0,0.004975625779479742,0.004975625779479742,1e-04,0.41999998688697815,1.0034997463226318,1.0034997463226318
455,1.0,0.004963339772075415,0.004963339772075415,1e-04,0.4300000071525574,1.001887559890747,1.001887559890747
456,1.0,0.004951548296958208,0.004951548296958208,1e-04,0.4399999976158142,0.9975612759590149,0.9975612759590149
457,1.0,0.004940856713801622,0.004940856713801622,1e-04,0.4399999976158142,0.9931578636169434,0.9931578636169434
458,1.0,0.004930384457111359,0.004930384457111359,1e-04,0.4399999976158142,0.989369809627533,0.989369809627533
459,1.0,0.00491798622533679,0.00491798622533679,1e-04,0.44999998807907104,0.9843047857284546,0.9843047857284546
460,1.0,0.004906395450234413,0.004906395450234413,1e-04,0.44999998807907104,0.979403555393219,0.979403555393219
461,1.0,0.004895385354757309,0.004895385354757309,1e-04,0.46000000834465027,0.9776888489723206,0.9776888489723206
462,1.0,0.00488372053951025,0.00488372053951025,1e-04,0.46000000834465027,0.9743106365203857,0.9743106365203857
463,1.0,0.004871938843280077,0.004871938843280077,1e-04,0.49000000953674316,0.9706972241401672,0.9706972241401672
464,1.0,0.004861324559897184,0.004861324559897184,1e-04,0.49000000953674316,0.9672598838806152,0.9672598838806152
465,1.0,0.004851808305829763,0.004851808305829763,1e-04,0.49000000953674316,0.9630761742591858,0.9630761742591858
466,1.0,0.0048415823839604855,0.0048415823839604855,1e-04,0.49000000953674316,0.962004542350769,0.962004542350769
467,1.0,0.004831431433558464,0.004831431433558464,1e-04,0.5,0.9580930471420288,0.9580930471420288
468,1.0,0.004820776171982288,0.004820776171982288,1e-04,0.5099999904632568,0.9516609311103821,0.9516609311103821
469,1.0,0.004810236860066652,0.004810236860066652,1e-04,0.5199999809265137,0.94861900806427,0.94861900806427
470,1.0,0.004800355527549982,0.004800355527549982,1e-04,0.5199999809265137,0.943989098072052,0.943989098072052
471,1.0,0.004786645993590355,0.004786645993590355,1e-04,0.5199999809265137,0.9400458335876465,0.9400458335876465
472,1.0,0.004775585141032934,0.004775585141032934,1e-04,0.5199999809265137,0.9380536675453186,0.9380536675453186
473,1.0,0.004765709862112999,0.004765709862112999,1e-04,0.5199999809265137,0.9309913516044617,0.9309913516044617
474,1.0,0.004753708839416504,0.004753708839416504,1e-04,0.5400000214576721,0.9246270656585693,0.9246270656585693
475,1.0,0.004743716213852167,0.004743716213852167,1e-04,0.5400000214576721,0.9186809659004211,0.9186809659004211
476,1.0,0.004733625333756208,0.004733625333756208,1e-04,0.5400000214576721,0.9122846722602844,0.9122846722602844
477,1.0,0.004723425023257732,0.004723425023257732,1e-04,0.5600000023841858,0.9111483693122864,0.9111483693122864
478,1.0,0.004712709225714207,0.004712709225714207,1e-04,0.5600000023841858,0.9085984826087952,0.9085984826087952
479,1.0,0.004701525438576937,0.004701525438576937,1e-04,0.5600000023841858,0.9025847911834717,0.9025847911834717
480,1.0,0.004690723959356546,0.004690723959356546,1e-04,0.5600000023841858,0.8949776291847229,0.8949776291847229
481,1.0,0.0046791257336735725,0.0046791257336735725,1e-04,0.5600000023841858,0.8901682496070862,0.8901682496070862
482,1.0,0.004668229725211859,0.004668229725211859,1e-04,0.5600000023841858,0.8875375390052795,0.8875375390052795
483,1.0,0.004657238256186247,0.004657238256186247,1e-04,0.5600000023841858,0.8859236836433411,0.8859236836433411
484,1.0,0.004647454712539911,0.004647454712539911,1e-04,0.5600000023841858,0.8799697756767273,0.8799697756767273
485,1.0,0.004636056255549192,0.004636056255549192,1e-04,0.5699999928474426,0.8743207454681396,0.8743207454681396
486,1.0,0.004626159556210041,0.004626159556210041,1e-04,0.5799999833106995,0.8714103698730469,0.8714103698730469
487,1.0,0.0046154772862792015,0.0046154772862792015,1e-04,0.5799999833106995,0.8711446523666382,0.8711446523666382
488,1.0,0.0046055675484240055,0.0046055675484240055,1e-04,0.5799999833106995,0.869184672832489,0.869184672832489
489,1.0,0.004595986567437649,0.004595986567437649,1e-04,0.5799999833106995,0.8648050427436829,0.8648050427436829
490,1.0,0.004585380665957928,0.004585380665957928,1e-04,0.5799999833106995,0.8581897020339966,0.8581897020339966
491,1.0,0.004574972204864025,0.004574972204864025,1e-04,0.5899999737739563,0.8518624305725098,0.8518624305725098
492,1.0,0.004565821960568428,0.004565821960568428,1e-04,0.5899999737739563,0.8484116196632385,0.8484116196632385
493,1.0,0.004555328283458948,0.004555328283458948,1e-04,0.5899999737739563,0.8456845283508301,0.8456845283508301
494,1.0,0.004544443916529417,0.004544443916529417,1e-04,0.5799999833106995,0.8407214879989624,0.8407214879989624
495,1.0,0.004532387480139732,0.004532387480139732,1e-04,0.5899999737739563,0.8364917635917664,0.8364917635917664
496,1.0,0.0045234039425849915,0.0045234039425849915,1e-04,0.5899999737739563,0.8316481709480286,0.8316481709480286
497,1.0,0.004512844607234001,0.004512844607234001,1e-04,0.5899999737739563,0.8283562660217285,0.8283562660217285
498,1.0,0.004504329990595579,0.004504329990595579,1e-04,0.5899999737739563,0.8266187310218811,0.8266187310218811
499,1.0,0.004493341315537691,0.004493341315537691,1e-04,0.5899999737739563,0.8240159749984741,0.8240159749984741
500,1.0,0.004483625292778015,0.004483625292778015,1e-04,0.6000000238418579,0.8185317516326904,0.8185317516326904
501,1.0,0.004473571665585041,0.004473571665585041,1e-04,0.6100000143051147,0.8120599985122681,0.8120599985122681
502,1.0,0.004462666343897581,0.004462666343897581,1e-04,0.6100000143051147,0.8078874945640564,0.8078874945640564
503,1.0,0.004453460685908794,0.004453460685908794,1e-04,0.6299999952316284,0.8046948909759521,0.8046948909759521
504,1.0,0.004443525802344084,0.004443525802344084,1e-04,0.6399999856948853,0.8000079393386841,0.8000079393386841
505,1.0,0.004435061942785978,0.004435061942785978,1e-04,0.6399999856948853,0.7945392727851868,0.7945392727851868
506,1.0,0.004423849284648895,0.004423849284648895,1e-04,0.6499999761581421,0.7892287373542786,0.7892287373542786
507,1.0,0.004414558410644531,0.004414558410644531,1e-04,0.6700000166893005,0.7859004735946655,0.7859004735946655
508,1.0,0.00440544867888093,0.00440544867888093,1e-04,0.6700000166893005,0.7817735075950623,0.7817735075950623
509,1.0,0.004394776653498411,0.004394776653498411,1e-04,0.6700000166893005,0.7756276726722717,0.7756276726722717
510,1.0,0.00438442500308156,0.00438442500308156,1e-04,0.6700000166893005,0.7692513465881348,0.7692513465881348
511,1.0,0.004375165794044733,0.004375165794044733,1e-04,0.6800000071525574,0.7663034796714783,0.7663034796714783
512,1.0,0.004363735672086477,0.004363735672086477,1e-04,0.6800000071525574,0.766103208065033,0.766103208065033
513,1.0,0.004354937933385372,0.004354937933385372,1e-04,0.6800000071525574,0.7627760171890259,0.7627760171890259
514,1.0,0.004345766734331846,0.004345766734331846,1e-04,0.6800000071525574,0.7590238451957703,0.7590238451957703
515,1.0,0.004336975514888763,0.004336975514888763,1e-04,0.6899999976158142,0.7534412145614624,0.7534412145614624
516,1.0,0.004328242503106594,0.004328242503106594,1e-04,0.7099999785423279,0.7491986751556396,0.7491986751556396
517,1.0,0.004318161401897669,0.004318161401897669,1e-04,0.7099999785423279,0.7458602786064148,0.7458602786064148
518,1.0,0.004309472162276506,0.004309472162276506,1e-04,0.7300000190734863,0.7409823536872864,0.7409823536872864
519,1.0,0.00430059852078557,0.00430059852078557,1e-04,0.7400000095367432,0.7366737127304077,0.7366737127304077
520,1.0,0.004290936980396509,0.004290936980396509,1e-04,0.7400000095367432,0.7325058579444885,0.7325058579444885
521,1.0,0.00428053317591548,0.00428053317591548,1e-04,0.7699999809265137,0.7268041968345642,0.7268041968345642
522,1.0,0.004272013437002897,0.004272013437002897,1e-04,0.7900000214576721,0.719937264919281,0.719937264919281
523,1.0,0.0042635537683963776,0.0042635537683963776,1e-04,0.7900000214576721,0.7173172235488892,0.7173172235488892
524,1.0,0.004253824707120657,0.004253824707120657,1e-04,0.7900000214576721,0.7126822471618652,0.7126822471618652
525,1.0,0.004244530573487282,0.004244530573487282,1e-04,0.7900000214576721,0.7097091674804688,0.7097091674804688
526,1.0,0.004236710257828236,0.004236710257828236,1e-04,0.7900000214576721,0.7063857913017273,0.7063857913017273
527,1.0,0.004228719510138035,0.004228719510138035,1e-04,0.7799999713897705,0.7027483582496643,0.7027483582496643
528,1.0,0.004219054710119963,0.004219054710119963,1e-04,0.7799999713897705,0.698668897151947,0.698668897151947
529,1.0,0.004210733808577061,0.004210733808577061,1e-04,0.7799999713897705,0.6934049129486084,0.6934049129486084
530,1.0,0.004201596602797508,0.004201596602797508,1e-04,0.7799999713897705,0.6893479824066162,0.6893479824066162
531,1.0,0.004191981628537178,0.004191981628537178,1e-04,0.7799999713897705,0.6874973177909851,0.6874973177909851
532,1.0,0.004182818811386824,0.004182818811386824,1e-04,0.7799999713897705,0.6854130625724792,0.6854130625724792
533,1.0,0.004172732122242451,0.004172732122242451,1e-04,0.7799999713897705,0.6841585636138916,0.6841585636138916
534,1.0,0.004164470359683037,0.004164470359683037,1e-04,0.7799999713897705,0.6802714467048645,0.6802714467048645
535,1.0,0.004156650044023991,0.004156650044023991,1e-04,0.7799999713897705,0.673952043056488,0.673952043056488
536,1.0,0.004145504906773567,0.004145504906773567,1e-04,0.7799999713897705,0.6687827110290527,0.6687827110290527
537,1.0,0.004137418698519468,0.004137418698519468,1e-04,0.7799999713897705,0.6663199663162231,0.6663199663162231
538,1.0,0.004128789994865656,0.004128789994865656,1e-04,0.7799999713897705,0.6631535887718201,0.6631535887718201
539,1.0,0.004120669327676296,0.004120669327676296,1e-04,0.7900000214576721,0.6577939391136169,0.6577939391136169
540,1.0,0.0041121505200862885,0.0041121505200862885,1e-04,0.7900000214576721,0.6531434655189514,0.6531434655189514
541,1.0,0.004103098995983601,0.004103098995983601,1e-04,0.7900000214576721,0.6510127186775208,0.6510127186775208
542,1.0,0.004094681236892939,0.004094681236892939,1e-04,0.800000011920929,0.6462016105651855,0.6462016105651855
543,1.0,0.004087231587618589,0.004087231587618589,1e-04,0.800000011920929,0.6419212818145752,0.6419212818145752
544,1.0,0.004077843390405178,0.004077843390405178,1e-04,0.800000011920929,0.6367411613464355,0.6367411613464355
545,1.0,0.0040701599791646,0.0040701599791646,1e-04,0.800000011920929,0.6335760354995728,0.6335760354995728
546,1.0,0.004060805309563875,0.004060805309563875,1e-04,0.800000011920929,0.6307663321495056,0.6307663321495056
547,1.0,0.004052257630974054,0.004052257630974054,1e-04,0.8100000023841858,0.6264830231666565,0.6264830231666565
548,1.0,0.00404385756701231,0.00404385756701231,1e-04,0.8100000023841858,0.6193873286247253,0.6193873286247253
549,1.0,0.004035801161080599,0.004035801161080599,1e-04,0.8100000023841858,0.614966869354248,0.614966869354248
550,1.0,0.004026934038847685,0.004026934038847685,1e-04,0.8100000023841858,0.6124069094657898,0.6124069094657898
551,1.0,0.004017180297523737,0.004017180297523737,1e-04,0.8100000023841858,0.6074394583702087,0.6074394583702087
552,1.0,0.00400905217975378,0.00400905217975378,1e-04,0.8100000023841858,0.6020790338516235,0.6020790338516235
553,1.0,0.004001867491751909,0.004001867491751909,1e-04,0.8100000023841858,0.6004902720451355,0.6004902720451355
554,1.0,0.003994711674749851,0.003994711674749851,1e-04,0.8100000023841858,0.5959464907646179,0.5959464907646179
555,1.0,0.003986479714512825,0.003986479714512825,1e-04,0.8199999928474426,0.5910163521766663,0.5910163521766663
556,1.0,0.003977613989263773,0.003977613989263773,1e-04,0.8199999928474426,0.5855357646942139,0.5855357646942139
557,1.0,0.0039695678278803825,0.0039695678278803825,1e-04,0.8199999928474426,0.5808562636375427,0.5808562636375427
558,1.0,0.003961280453950167,0.003961280453950167,1e-04,0.8199999928474426,0.5799443125724792,0.5799443125724792
559,1.0,0.003953706007450819,0.003953706007450819,1e-04,0.8199999928474426,0.5776585340499878,0.5776585340499878
560,1.0,0.003945885691791773,0.003945885691791773,1e-04,0.8199999928474426,0.5710313320159912,0.5710313320159912
561,1.0,0.003936244174838066,0.003936244174838066,1e-04,0.8199999928474426,0.5652276277542114,0.5652276277542114
562,1.0,0.003928761929273605,0.003928761929273605,1e-04,0.8199999928474426,0.5611163377761841,0.5611163377761841
563,1.0,0.003919081296771765,0.003919081296771765,1e-04,0.8199999928474426,0.5584328174591064,0.5584328174591064
564,1.0,0.00391186261549592,0.00391186261549592,1e-04,0.8199999928474426,0.5561731457710266,0.5561731457710266
565,1.0,0.003903447650372982,0.003903447650372982,1e-04,0.8199999928474426,0.5528366565704346,0.5528366565704346
566,1.0,0.0038957572542130947,0.0038957572542130947,1e-04,0.8299999833106995,0.5474138855934143,0.5474138855934143
567,1.0,0.0038883406668901443,0.0038883406668901443,1e-04,0.8299999833106995,0.5430076122283936,0.5430076122283936
568,1.0,0.003880518488585949,0.003880518488585949,1e-04,0.8299999833106995,0.5384091734886169,0.5384091734886169
569,1.0,0.0038717619609087706,0.0038717619609087706,1e-04,0.8299999833106995,0.5358495116233826,0.5358495116233826
570,1.0,0.0038633765652775764,0.0038633765652775764,1e-04,0.8299999833106995,0.5344762206077576,0.5344762206077576
571,1.0,0.003855545539408922,0.003855545539408922,1e-04,0.8299999833106995,0.5300857424736023,0.5300857424736023
572,1.0,0.0038465627003461123,0.0038465627003461123,1e-04,0.8299999833106995,0.5247714519500732,0.5247714519500732
573,1.0,0.003838662290945649,0.003838662290945649,1e-04,0.8299999833106995,0.5230344533920288,0.5230344533920288
574,1.0,0.0038304124027490616,0.0038304124027490616,1e-04,0.8299999833106995,0.5204015970230103,0.5204015970230103
575,1.0,0.0038241061847656965,0.0038241061847656965,1e-04,0.8299999833106995,0.5168071985244751,0.5168071985244751
576,1.0,0.0038153943605720997,0.0038153943605720997,1e-04,0.8299999833106995,0.5126844644546509,0.5126844644546509
577,1.0,0.0038088620640337467,0.0038088620640337467,1e-04,0.8399999737739563,0.5070866942405701,0.5070866942405701
578,1.0,0.003800933016464114,0.003800933016464114,1e-04,0.8399999737739563,0.5046969056129456,0.5046969056129456
579,1.0,0.0037935953587293625,0.0037935953587293625,1e-04,0.8399999737739563,0.5030072927474976,0.5030072927474976
580,1.0,0.003785758512094617,0.003785758512094617,1e-04,0.8399999737739563,0.499734103679657,0.499734103679657
581,1.0,0.003777945414185524,0.003777945414185524,1e-04,0.8399999737739563,0.4948839247226715,0.4948839247226715
582,1.0,0.003769670380279422,0.003769670380279422,1e-04,0.8399999737739563,0.49065423011779785,0.49065423011779785
583,1.0,0.0037621096707880497,0.0037621096707880497,1e-04,0.8399999737739563,0.4884754419326782,0.4884754419326782
584,1.0,0.0037539908662438393,0.0037539908662438393,1e-04,0.8399999737739563,0.4869834780693054,0.4869834780693054
585,1.0,0.0037465235218405724,0.0037465235218405724,1e-04,0.8399999737739563,0.4829288721084595,0.4829288721084595
586,1.0,0.003739304840564728,0.003739304840564728,1e-04,0.8399999737739563,0.47858062386512756,0.47858062386512756
587,1.0,0.00373139139264822,0.00373139139264822,1e-04,0.8399999737739563,0.47599661350250244,0.47599661350250244
588,1.0,0.003725051647052169,0.003725051647052169,1e-04,0.8500000238418579,0.47245997190475464,0.47245997190475464
589,1.0,0.00371720758266747,0.00371720758266747,1e-04,0.8500000238418579,0.4698313772678375,0.4698313772678375
590,1.0,0.0037097157910466194,0.0037097157910466194,1e-04,0.8500000238418579,0.4672420024871826,0.4672420024871826
591,1.0,0.003702517133206129,0.003702517133206129,1e-04,0.8500000238418579,0.4635170102119446,0.4635170102119446
592,1.0,0.0036942658480256796,0.0036942658480256796,1e-04,0.8500000238418579,0.4596666693687439,0.4596666693687439
593,1.0,0.0036877833772450686,0.0036877833772450686,1e-04,0.8600000143051147,0.4567708969116211,0.4567708969116211
594,1.0,0.0036802091635763645,0.0036802091635763645,1e-04,0.8600000143051147,0.45550838112831116,0.45550838112831116
595,1.0,0.0036725581157952547,0.0036725581157952547,1e-04,0.8600000143051147,0.45505619049072266,0.45505619049072266
596,1.0,0.00366514315828681,0.00366514315828681,1e-04,0.8600000143051147,0.45143306255340576,0.45143306255340576
597,1.0,0.003658104920759797,0.003658104920759797,1e-04,0.8700000047683716,0.44660484790802,0.44660484790802
598,1.0,0.003650951199233532,0.003650951199233532,1e-04,0.8700000047683716,0.44438639283180237,0.44438639283180237
599,1.0,0.003643700387328863,0.003643700387328863,1e-04,0.8700000047683716,0.44320395588874817,0.44320395588874817
600,1.0,0.0036358365323394537,0.0036358365323394537,1e-04,0.8700000047683716,0.44008272886276245,0.44008272886276245
601,1.0,0.0036281244829297066,0.0036281244829297066,1e-04,0.8700000047683716,0.4368649423122406,0.4368649423122406
602,1.0,0.003621290437877178,0.003621290437877178,1e-04,0.8700000047683716,0.4322327673435211,0.4322327673435211
603,1.0,0.0036140421871095896,0.0036140421871095896,1e-04,0.8700000047683716,0.43091705441474915,0.43091705441474915
604,1.0,0.00360640580765903,0.00360640580765903,1e-04,0.8700000047683716,0.43260449171066284,0.43260449171066284
605,1.0,0.0035994541831314564,0.0035994541831314564,1e-04,0.8700000047683716,0.42975395917892456,0.42975395917892456
606,1.0,0.0035926306154578924,0.0035926306154578924,1e-04,0.8700000047683716,0.4261569678783417,0.4261569678783417
607,1.0,0.0035847544204443693,0.0035847544204443693,1e-04,0.8799999952316284,0.4227758049964905,0.4227758049964905
608,1.0,0.0035781399346888065,0.0035781399346888065,1e-04,0.8799999952316284,0.4210868775844574,0.4210868775844574
609,1.0,0.0035704218316823244,0.0035704218316823244,1e-04,0.8799999952316284,0.42163848876953125,0.42163848876953125
610,1.0,0.00356336054392159,0.00356336054392159,1e-04,0.8799999952316284,0.4195844531059265,0.4195844531059265
611,1.0,0.00355527363717556,0.00355527363717556,1e-04,0.8799999952316284,0.4160670340061188,0.4160670340061188
612,1.0,0.0035485043190419674,0.0035485043190419674,1e-04,0.8799999952316284,0.4135197103023529,0.4135197103023529
613,1.0,0.0035416632890701294,0.0035416632890701294,1e-04,0.8799999952316284,0.4117109179496765,0.4117109179496765
614,1.0,0.0035348462406545877,0.0035348462406545877,1e-04,0.8899999856948853,0.4097285866737366,0.4097285866737366
615,1.0,0.0035269686486572027,0.0035269686486572027,1e-04,0.8899999856948853,0.4073006510734558,0.4073006510734558
616,1.0,0.0035197297111153603,0.0035197297111153603,1e-04,0.8899999856948853,0.4050772786140442,0.4050772786140442
617,1.0,0.003512463765218854,0.003512463765218854,1e-04,0.8899999856948853,0.4023282527923584,0.4023282527923584
618,1.0,0.0035064639523625374,0.0035064639523625374,1e-04,0.8899999856948853,0.40133416652679443,0.40133416652679443
619,1.0,0.0034988366533070803,0.0034988366533070803,1e-04,0.8899999856948853,0.3995029926300049,0.3995029926300049
620,1.0,0.0034926808439195156,0.0034926808439195156,1e-04,0.8899999856948853,0.3979439437389374,0.3979439437389374
621,1.0,0.003486254718154669,0.003486254718154669,1e-04,0.8799999952316284,0.3970978856086731,0.3970978856086731
622,1.0,0.003478460945188999,0.003478460945188999,1e-04,0.8700000047683716,0.3949816823005676,0.3949816823005676
623,1.0,0.003471705596894026,0.003471705596894026,1e-04,0.8700000047683716,0.3935299813747406,0.3935299813747406
624,1.0,0.0034649325534701347,0.0034649325534701347,1e-04,0.8799999952316284,0.39158982038497925,0.39158982038497925
625,1.0,0.0034576039761304855,0.0034576039761304855,1e-04,0.8799999952316284,0.3903541564941406,0.3903541564941406
626,1.0,0.003450878197327256,0.003450878197327256,1e-04,0.8799999952316284,0.3895629048347473,0.3895629048347473
627,1.0,0.003445497713983059,0.003445497713983059,1e-04,0.8799999952316284,0.3879006505012512,0.3879006505012512
628,1.0,0.00343894655816257,0.00343894655816257,1e-04,0.8799999952316284,0.3871046006679535,0.3871046006679535
629,1.0,0.0034312219358980656,0.0034312219358980656,1e-04,0.8799999952316284,0.3869612216949463,0.3869612216949463
630,1.0,0.003424276364967227,0.003424276364967227,1e-04,0.8899999856948853,0.38480257987976074,0.38480257987976074
631,1.0,0.0034171438310295343,0.0034171438310295343,1e-04,0.8899999856948853,0.3825560510158539,0.3825560510158539
632,1.0,0.003410465084016323,0.003410465084016323,1e-04,0.8899999856948853,0.38232624530792236,0.38232624530792236
633,1.0,0.003403595881536603,0.003403595881536603,1e-04,0.8899999856948853,0.3827463984489441,0.3827463984489441
634,1.0,0.003397488035261631,0.003397488035261631,1e-04,0.8899999856948853,0.38163283467292786,0.38163283467292786
635,1.0,0.003390803001821041,0.003390803001821041,1e-04,0.8899999856948853,0.3797916769981384,0.3797916769981384
636,1.0,0.0033847270533442497,0.0033847270533442497,1e-04,0.8899999856948853,0.37728238105773926,0.37728238105773926
637,1.0,0.0033784285187721252,0.0033784285187721252,1e-04,0.8899999856948853,0.377313494682312,0.377313494682312
638,1.0,0.0033718638587743044,0.0033718638587743044,1e-04,0.8899999856948853,0.3779028654098511,0.3779028654098511
639,1.0,0.0033649432007223368,0.0033649432007223368,1e-04,0.8899999856948853,0.3749525845050812,0.3749525845050812
640,1.0,0.0033587091602385044,0.0033587091602385044,1e-04,0.8899999856948853,0.3729313611984253,0.3729313611984253
641,1.0,0.003352197352796793,0.003352197352796793,1e-04,0.8899999856948853,0.37197190523147583,0.37197190523147583
642,1.0,0.003345639444887638,0.003345639444887638,1e-04,0.8899999856948853,0.3714030981063843,0.3714030981063843
643,1.0,0.003338809357956052,0.003338809357956052,1e-04,0.8899999856948853,0.37150803208351135,0.37150803208351135
644,1.0,0.003332016756758094,0.003332016756758094,1e-04,0.8899999856948853,0.369304358959198,0.369304358959198
645,1.0,0.0033257051836699247,0.0033257051836699247,1e-04,0.8899999856948853,0.36711597442626953,0.36711597442626953
646,1.0,0.003319055773317814,0.003319055773317814,1e-04,0.8899999856948853,0.366962730884552,0.366962730884552
647,1.0,0.0033134082332253456,0.0033134082332253456,1e-04,0.8899999856948853,0.36577433347702026,0.36577433347702026
648,1.0,0.0033068382181227207,0.0033068382181227207,1e-04,0.8899999856948853,0.3655039966106415,0.3655039966106415
649,1.0,0.0033002295531332493,0.0033002295531332493,1e-04,0.8899999856948853,0.36357489228248596,0.36357489228248596
650,1.0,0.003294324968010187,0.003294324968010187,1e-04,0.8799999952316284,0.3609080910682678,0.3609080910682678
651,1.0,0.0032873600721359253,0.0032873600721359253,1e-04,0.8799999952316284,0.36042630672454834,0.36042630672454834
652,1.0,0.003281594021245837,0.003281594021245837,1e-04,0.8799999952316284,0.36067286133766174,0.36067286133766174
653,1.0,0.0032746342476457357,0.0032746342476457357,1e-04,0.8799999952316284,0.35905227065086365,0.35905227065086365
654,1.0,0.003269654233008623,0.003269654233008623,1e-04,0.8799999952316284,0.35844314098358154,0.35844314098358154
655,1.0,0.0032635158859193325,0.0032635158859193325,1e-04,0.8799999952316284,0.3565097153186798,0.3565097153186798
656,1.0,0.003255552379414439,0.003255552379414439,1e-04,0.8700000047683716,0.3554484248161316,0.3554484248161316
657,1.0,0.003249336965382099,0.003249336965382099,1e-04,0.8700000047683716,0.35546889901161194,0.35546889901161194
658,1.0,0.0032433129381388426,0.0032433129381388426,1e-04,0.8700000047683716,0.3550623953342438,0.3550623953342438
659,1.0,0.0032372293062508106,0.0032372293062508106,1e-04,0.8700000047683716,0.3544439971446991,0.3544439971446991
660,1.0,0.0032306937500834465,0.0032306937500834465,1e-04,0.8700000047683716,0.3532445430755615,0.3532445430755615
661,1.0,0.003225282533094287,0.003225282533094287,1e-04,0.8700000047683716,0.3519538938999176,0.3519538938999176
662,1.0,0.003220248268917203,0.003220248268917203,1e-04,0.8700000047683716,0.3514324128627777,0.3514324128627777
663,1.0,0.0032132435590028763,0.0032132435590028763,1e-04,0.8700000047683716,0.35109806060791016,0.35109806060791016
664,1.0,0.003206177381798625,0.003206177381798625,1e-04,0.8700000047683716,0.3506556451320648,0.3506556451320648
665,1.0,0.003200455103069544,0.003200455103069544,1e-04,0.8700000047683716,0.3500622510910034,0.3500622510910034
666,1.0,0.003194129094481468,0.003194129094481468,1e-04,0.8700000047683716,0.3493801951408386,0.3493801951408386
667,1.0,0.003188199596479535,0.003188199596479535,1e-04,0.8700000047683716,0.3485275208950043,0.3485275208950043
668,1.0,0.003181842854246497,0.003181842854246497,1e-04,0.8700000047683716,0.34852126240730286,0.34852126240730286
669,1.0,0.003175219986587763,0.003175219986587763,1e-04,0.8700000047683716,0.3485288918018341,0.3485288918018341
670,1.0,0.0031688243616372347,0.0031688243616372347,1e-04,0.8700000047683716,0.34781062602996826,0.34781062602996826
671,1.0,0.003163316287100315,0.003163316287100315,1e-04,0.8700000047683716,0.3468341827392578,0.3468341827392578
672,1.0,0.0031565779354423285,0.0031565779354423285,1e-04,0.8700000047683716,0.34557560086250305,0.34557560086250305
673,1.0,0.0031528484541922808,0.0031528484541922808,1e-04,0.8700000047683716,0.3459136486053467,0.3459136486053467
674,1.0,0.0031455436255782843,0.0031455436255782843,1e-04,0.8700000047683716,0.3460586965084076,0.3460586965084076
675,1.0,0.003139384090900421,0.003139384090900421,1e-04,0.8700000047683716,0.34510818123817444,0.34510818123817444
676,1.0,0.003134021768346429,0.003134021768346429,1e-04,0.8799999952316284,0.34474116563796997,0.34474116563796997
677,1.0,0.0031290408223867416,0.0031290408223867416,1e-04,0.8799999952316284,0.34390440583229065,0.34390440583229065
678,1.0,0.003121870569884777,0.003121870569884777,1e-04,0.8799999952316284,0.34334155917167664,0.34334155917167664
679,1.0,0.0031158006750047207,0.0031158006750047207,1e-04,0.8799999952316284,0.3431617021560669,0.3431617021560669
680,1.0,0.0031101577915251255,0.0031101577915251255,1e-04,0.8799999952316284,0.3426223695278168,0.3426223695278168
681,1.0,0.003104505129158497,0.003104505129158497,1e-04,0.8799999952316284,0.3426467776298523,0.3426467776298523
682,1.0,0.0030981465242803097,0.0030981465242803097,1e-04,0.8799999952316284,0.342002272605896,0.342002272605896
683,1.0,0.003092347178608179,0.003092347178608179,1e-04,0.8799999952316284,0.34116095304489136,0.34116095304489136
684,1.0,0.0030874109361320734,0.0030874109361320734,1e-04,0.8799999952316284,0.34095925092697144,0.34095925092697144
685,1.0,0.003081606002524495,0.003081606002524495,1e-04,0.8799999952316284,0.34050697088241577,0.34050697088241577
686,1.0,0.003076310735195875,0.003076310735195875,1e-04,0.8799999952316284,0.34001511335372925,0.34001511335372925
687,1.0,0.0030708080157637596,0.0030708080157637596,1e-04,0.8799999952316284,0.34013140201568604,0.34013140201568604
688,1.0,0.0030645078513771296,0.0030645078513771296,1e-04,0.8799999952316284,0.3397057354450226,0.3397057354450226
689,1.0,0.0030581641476601362,0.0030581641476601362,1e-04,0.8799999952316284,0.33928871154785156,0.33928871154785156
690,1.0,0.003052174812182784,0.003052174812182784,1e-04,0.8799999952316284,0.3391191363334656,0.3391191363334656
691,1.0,0.00304671679623425,0.00304671679623425,1e-04,0.8799999952316284,0.3386112153530121,0.3386112153530121
692,1.0,0.003040486015379429,0.003040486015379429,1e-04,0.8799999952316284,0.33832019567489624,0.33832019567489624
693,1.0,0.0030345600098371506,0.0030345600098371506,1e-04,0.8799999952316284,0.338428795337677,0.338428795337677
694,1.0,0.003028917359188199,0.003028917359188199,1e-04,0.8799999952316284,0.3379215598106384,0.3379215598106384
695,1.0,0.003024069359526038,0.003024069359526038,1e-04,0.8799999952316284,0.33792123198509216,0.33792123198509216
696,1.0,0.003018095390871167,0.003018095390871167,1e-04,0.8799999952316284,0.3375641107559204,0.3375641107559204
697,1.0,0.0030124643817543983,0.0030124643817543983,1e-04,0.8799999952316284,0.33716946840286255,0.33716946840286255
698,1.0,0.003007233375683427,0.003007233375683427,1e-04,0.8799999952316284,0.33721041679382324,0.33721041679382324
699,1.0,0.003002116922289133,0.003002116922289133,1e-04,0.8799999952316284,0.337009072303772,0.337009072303772
700,1.0,0.002996824448928237,0.002996824448928237,1e-04,0.8799999952316284,0.336651086807251,0.336651086807251
701,1.0,0.002991136396303773,0.002991136396303773,1e-04,0.8799999952316284,0.33660757541656494,0.33660757541656494
702,1.0,0.0029859691858291626,0.0029859691858291626,1e-04,0.8799999952316284,0.3364059329032898,0.3364059329032898
703,1.0,0.0029803309589624405,0.0029803309589624405,1e-04,0.8799999952316284,0.33641040325164795,0.33641040325164795
704,1.0,0.002974904142320156,0.002974904142320156,1e-04,0.8799999952316284,0.3361577093601227,0.3361577093601227
705,1.0,0.002969202119857073,0.002969202119857073,1e-04,0.8799999952316284,0.33604004979133606,0.33604004979133606
706,1.0,0.0029638931155204773,0.0029638931155204773,1e-04,0.8799999952316284,0.33604297041893005,0.33604297041893005
707,1.0,0.0029586777091026306,0.0029586777091026306,1e-04,0.8799999952316284,0.3360363245010376,0.3360363245010376
708,1.0,0.0029527267906814814,0.0029527267906814814,1e-04,0.8799999952316284,0.3358224034309387,0.3358224034309387
709,1.0,0.0029472524765878916,0.0029472524765878916,1e-04,0.8799999952316284,0.3358762264251709,0.3358762264251709
710,1.0,0.0029402964282780886,0.0029402964282780886,1e-04,0.8799999952316284,0.3356977105140686,0.3356977105140686
711,1.0,0.0029344442300498486,0.0029344442300498486,1e-04,0.8799999952316284,0.3352378010749817,0.3352378010749817
712,1.0,0.0029303301125764847,0.0029303301125764847,1e-04,0.8799999952316284,0.3356378674507141,0.3356378674507141
713,1.0,0.002925235079601407,0.002925235079601407,1e-04,0.8799999952316284,0.335417777299881,0.335417777299881
714,1.0,0.0029204199090600014,0.0029204199090600014,1e-04,0.8799999952316284,0.33567729592323303,0.33567729592323303
715,1.0,0.0029140859842300415,0.0029140859842300415,1e-04,0.8799999952316284,0.335526704788208,0.335526704788208
716,1.0,0.002909685019403696,0.002909685019403696,1e-04,0.8799999952316284,0.3354572653770447,0.3354572653770447
717,1.0,0.002903299406170845,0.002903299406170845,1e-04,0.8799999952316284,0.3353823125362396,0.3353823125362396
718,1.0,0.0028985580429434776,0.0028985580429434776,1e-04,0.8799999952316284,0.3355517089366913,0.3355517089366913
719,1.0,0.0028929198160767555,0.0028929198160767555,1e-04,0.8799999952316284,0.33577999472618103,0.33577999472618103
720,1.0,0.002888432703912258,0.002888432703912258,1e-04,0.8799999952316284,0.33616703748703003,0.33616703748703003
721,1.0,0.0028827458154410124,0.0028827458154410124,1e-04,0.8799999952316284,0.33609455823898315,0.33609455823898315
722,1.0,0.0028774102684110403,0.0028774102684110403,1e-04,0.8799999952316284,0.3361350893974304,0.3361350893974304
723,1.0,0.002871961332857609,0.002871961332857609,1e-04,0.8799999952316284,0.3362041413784027,0.3362041413784027
724,1.0,0.0028674860950559378,0.0028674860950559378,1e-04,0.8799999952316284,0.33625975251197815,0.33625975251197815
725,1.0,0.0028624346014112234,0.0028624346014112234,1e-04,0.8799999952316284,0.3366515636444092,0.3366515636444092
726,1.0,0.0028569644782692194,0.0028569644782692194,1e-04,0.8799999952316284,0.33682185411453247,0.33682185411453247
727,1.0,0.0028514626901596785,0.0028514626901596785,1e-04,0.8799999952316284,0.33684611320495605,0.33684611320495605
728,1.0,0.002846823539584875,0.002846823539584875,1e-04,0.8799999952316284,0.3369421064853668,0.3369421064853668
729,1.0,0.0028413350228220224,0.0028413350228220224,1e-04,0.8799999952316284,0.33701759576797485,0.33701759576797485
730,1.0,0.002835826948285103,0.002835826948285103,1e-04,0.8799999952316284,0.33703166246414185,0.33703166246414185
731,1.0,0.00283100176602602,0.00283100176602602,1e-04,0.8799999952316284,0.33735930919647217,0.33735930919647217
732,1.0,0.0028250282630324364,0.0028250282630324364,1e-04,0.8799999952316284,0.337787926197052,0.337787926197052
733,1.0,0.0028194249607622623,0.0028194249607622623,1e-04,0.8799999952316284,0.3380662202835083,0.3380662202835083
734,1.0,0.002816520631313324,0.002816520631313324,1e-04,0.8799999952316284,0.3385118544101715,0.3385118544101715
735,1.0,0.0028104721568524837,0.0028104721568524837,1e-04,0.8799999952316284,0.338631272315979,0.338631272315979
736,1.0,0.00280564627610147,0.00280564627610147,1e-04,0.8799999952316284,0.3385621905326843,0.3385621905326843
737,1.0,0.0028005391359329224,0.0028005391359329224,1e-04,0.8799999952316284,0.3384813070297241,0.3384813070297241
738,1.0,0.0027950636576861143,0.0027950636576861143,1e-04,0.8799999952316284,0.33869343996047974,0.33869343996047974
739,1.0,0.0027900722343474627,0.0027900722343474627,1e-04,0.8799999952316284,0.3389241099357605,0.3389241099357605
740,1.0,0.002784659853205085,0.002784659853205085,1e-04,0.8700000047683716,0.33938083052635193,0.33938083052635193
741,1.0,0.0027795261703431606,0.0027795261703431606,1e-04,0.8700000047683716,0.33965224027633667,0.33965224027633667
742,1.0,0.002775056753307581,0.002775056753307581,1e-04,0.8700000047683716,0.3398648500442505,0.3398648500442505
743,1.0,0.002770256018266082,0.002770256018266082,1e-04,0.8700000047683716,0.3401240110397339,0.3401240110397339
744,1.0,0.0027654392179101706,0.0027654392179101706,1e-04,0.8700000047683716,0.3402148485183716,0.3402148485183716
745,1.0,0.0027606100775301456,0.0027606100775301456,1e-04,0.8700000047683716,0.3409588932991028,0.3409588932991028
746,1.0,0.0027550291270017624,0.0027550291270017624,1e-04,0.8700000047683716,0.34130018949508667,0.34130018949508667
747,1.0,0.0027502968441694975,0.0027502968441694975,1e-04,0.8700000047683716,0.3418927788734436,0.3418927788734436
748,1.0,0.0027465717867016792,0.0027465717867016792,1e-04,0.8700000047683716,0.34167081117630005,0.34167081117630005
749,1.0,0.0027412769850343466,0.0027412769850343466,1e-04,0.8700000047683716,0.3419644236564636,0.3419644236564636
750,1.0,0.0027360140811651945,0.0027360140811651945,1e-04,0.8700000047683716,0.3423444628715515,0.3423444628715515
751,1.0,0.0027301590889692307,0.0027301590889692307,1e-04,0.8700000047683716,0.3423122465610504,0.3423122465610504
752,1.0,0.0027252573054283857,0.0027252573054283857,1e-04,0.8700000047683716,0.3428342938423157,0.3428342938423157
753,1.0,0.0027211045380681753,0.0027211045380681753,1e-04,0.8700000047683716,0.3433896005153656,0.3433896005153656
754,1.0,0.0027159161400049925,0.0027159161400049925,1e-04,0.8700000047683716,0.34374046325683594,0.34374046325683594
755,1.0,0.0027106809429824352,0.0027106809429824352,1e-04,0.8700000047683716,0.34428223967552185,0.34428223967552185
756,1.0,0.002706025494262576,0.002706025494262576,1e-04,0.8700000047683716,0.34391462802886963,0.34391462802886963
757,1.0,0.002700913930311799,0.002700913930311799,1e-04,0.8700000047683716,0.344313383102417,0.344313383102417
758,1.0,0.002695702016353607,0.002695702016353607,1e-04,0.8700000047683716,0.3446437418460846,0.3446437418460846
759,1.0,0.0026913927868008614,0.0026913927868008614,1e-04,0.8700000047683716,0.3448146879673004,0.3448146879673004
760,1.0,0.0026865091640502214,0.0026865091640502214,1e-04,0.8700000047683716,0.3452126383781433,0.3452126383781433
761,1.0,0.002682043705135584,0.002682043705135584,1e-04,0.8700000047683716,0.345281183719635,0.345281183719635
762,1.0,0.0026777111925184727,0.0026777111925184727,1e-04,0.8700000047683716,0.34541037678718567,0.34541037678718567
763,1.0,0.0026732897385954857,0.0026732897385954857,1e-04,0.8700000047683716,0.34566226601600647,0.34566226601600647
764,1.0,0.0026686617638915777,0.0026686617638915777,1e-04,0.8700000047683716,0.34506943821907043,0.34506943821907043
765,1.0,0.002664390718564391,0.002664390718564391,1e-04,0.8700000047683716,0.3457157611846924,0.3457157611846924
766,1.0,0.002659626305103302,0.002659626305103302,1e-04,0.8700000047683716,0.3456317186355591,0.3456317186355591
767,1.0,0.0026549790054559708,0.0026549790054559708,1e-04,0.8700000047683716,0.3461066484451294,0.3461066484451294
768,1.0,0.0026496704667806625,0.0026496704667806625,1e-04,0.8700000047683716,0.34724074602127075,0.34724074602127075
769,1.0,0.00264536589384079,0.00264536589384079,1e-04,0.8700000047683716,0.3463343679904938,0.3463343679904938
770,1.0,0.0026406217366456985,0.0026406217366456985,1e-04,0.8700000047683716,0.3460314869880676,0.3460314869880676
771,1.0,0.0026349585969001055,0.0026349585969001055,1e-04,0.8700000047683716,0.34656965732574463,0.34656965732574463
772,1.0,0.0026300945319235325,0.0026300945319235325,1e-04,0.8700000047683716,0.34670519828796387,0.34670519828796387
773,1.0,0.002625694265589118,0.002625694265589118,1e-04,0.8700000047683716,0.3477122187614441,0.3477122187614441
774,1.0,0.002621402032673359,0.002621402032673359,1e-04,0.8700000047683716,0.34770289063453674,0.34770289063453674
775,1.0,0.0026162865106016397,0.0026162865106016397,1e-04,0.8700000047683716,0.34778156876564026,0.34778156876564026
776,1.0,0.0026127358432859182,0.0026127358432859182,1e-04,0.8700000047683716,0.34842386841773987,0.34842386841773987
777,1.0,0.002608759794384241,0.002608759794384241,1e-04,0.8700000047683716,0.348199725151062,0.348199725151062
778,1.0,0.0026031455490738153,0.0026031455490738153,1e-04,0.8700000047683716,0.3480679392814636,0.3480679392814636
779,1.0,0.002598198363557458,0.002598198363557458,1e-04,0.8700000047683716,0.3490208089351654,0.3490208089351654
780,1.0,0.0025944283697754145,0.0025944283697754145,1e-04,0.8700000047683716,0.34886595606803894,0.34886595606803894
781,1.0,0.002588907489553094,0.002588907489553094,1e-04,0.8700000047683716,0.3500385582447052,0.3500385582447052
782,1.0,0.0025845773052424192,0.0025845773052424192,1e-04,0.8700000047683716,0.3504590094089508,0.3504590094089508
783,1.0,0.0025793120730668306,0.0025793120730668306,1e-04,0.8700000047683716,0.35004666447639465,0.35004666447639465
784,1.0,0.0025758654810488224,0.0025758654810488224,1e-04,0.8700000047683716,0.3504556715488434,0.3504556715488434
785,1.0,0.002571443561464548,0.002571443561464548,1e-04,0.8700000047683716,0.350048303604126,0.350048303604126
786,1.0,0.0025667459703981876,0.0025667459703981876,1e-04,0.8700000047683716,0.35076165199279785,0.35076165199279785
787,1.0,0.0025621585082262754,0.0025621585082262754,1e-04,0.8700000047683716,0.3519728183746338,0.3519728183746338
788,1.0,0.0025578439235687256,0.0025578439235687256,1e-04,0.8700000047683716,0.35240066051483154,0.35240066051483154
789,1.0,0.002552300924435258,0.002552300924435258,1e-04,0.8700000047683716,0.3526057004928589,0.3526057004928589
790,1.0,0.0025474883150309324,0.0025474883150309324,1e-04,0.8700000047683716,0.3532775640487671,0.3532775640487671
791,1.0,0.002543520648032427,0.002543520648032427,1e-04,0.8700000047683716,0.3524487614631653,0.3524487614631653
792,1.0,0.0025406640488654375,0.0025406640488654375,1e-04,0.8799999952316284,0.3531937897205353,0.3531937897205353
793,1.0,0.0025359010323882103,0.0025359010323882103,1e-04,0.8799999952316284,0.353310227394104,0.353310227394104
794,1.0,0.0025307757314294577,0.0025307757314294577,1e-04,0.8799999952316284,0.35345348715782166,0.35345348715782166
795,1.0,0.002526831580325961,0.002526831580325961,1e-04,0.8799999952316284,0.3540431559085846,0.3540431559085846
796,1.0,0.0025226054713129997,0.0025226054713129997,1e-04,0.8799999952316284,0.3542749285697937,0.3542749285697937
797,1.0,0.0025176077615469694,0.0025176077615469694,1e-04,0.8799999952316284,0.35411036014556885,0.35411036014556885
798,1.0,0.0025140149518847466,0.0025140149518847466,1e-04,0.8799999952316284,0.3543837368488312,0.3543837368488312
799,1.0,0.0025102337822318077,0.0025102337822318077,1e-04,0.8799999952316284,0.35520052909851074,0.35520052909851074
800,1.0,0.0025045129004865885,0.0025045129004865885,1e-04,0.8799999952316284,0.3557194173336029,0.3557194173336029
801,1.0,0.002500079572200775,0.002500079572200775,1e-04,0.8799999952316284,0.3563337028026581,0.3563337028026581
802,1.0,0.002495637396350503,0.002495637396350503,1e-04,0.8799999952316284,0.35652023553848267,0.35652023553848267
803,1.0,0.0024919130373746157,0.0024919130373746157,1e-04,0.8799999952316284,0.35687342286109924,0.35687342286109924
804,1.0,0.0024878885596990585,0.0024878885596990585,1e-04,0.8799999952316284,0.3585659861564636,0.3585659861564636
805,1.0,0.0024828407913446426,0.0024828407913446426,1e-04,0.8799999952316284,0.35862618684768677,0.35862618684768677
806,1.0,0.0024793564807623625,0.0024793564807623625,1e-04,0.8799999952316284,0.3593980371952057,0.3593980371952057
807,1.0,0.002474780660122633,0.002474780660122633,1e-04,0.8799999952316284,0.35939130187034607,0.35939130187034607
808,1.0,0.0024706064723432064,0.0024706064723432064,1e-04,0.8799999952316284,0.35998913645744324,0.35998913645744324
809,1.0,0.0024670574348419905,0.0024670574348419905,1e-04,0.8799999952316284,0.3602103888988495,0.3602103888988495
810,1.0,0.0024629030376672745,0.0024629030376672745,1e-04,0.8799999952316284,0.36113572120666504,0.36113572120666504
811,1.0,0.0024586983490735292,0.0024586983490735292,1e-04,0.8799999952316284,0.36057794094085693,0.36057794094085693
812,1.0,0.002454908099025488,0.002454908099025488,1e-04,0.8799999952316284,0.36132973432540894,0.36132973432540894
813,1.0,0.0024506759364157915,0.0024506759364157915,1e-04,0.8799999952316284,0.36151254177093506,0.36151254177093506
814,1.0,0.0024464805610477924,0.0024464805610477924,1e-04,0.8799999952316284,0.36229538917541504,0.36229538917541504
815,1.0,0.0024418956600129604,0.0024418956600129604,1e-04,0.8799999952316284,0.36260098218917847,0.36260098218917847
816,1.0,0.0024377750232815742,0.0024377750232815742,1e-04,0.8799999952316284,0.3630520701408386,0.3630520701408386
817,1.0,0.0024335822090506554,0.0024335822090506554,1e-04,0.8799999952316284,0.36261487007141113,0.36261487007141113
818,1.0,0.002429055282846093,0.002429055282846093,1e-04,0.8799999952316284,0.3625332713127136,0.3625332713127136
819,1.0,0.0024253909941762686,0.0024253909941762686,1e-04,0.8799999952316284,0.363419771194458,0.363419771194458
820,1.0,0.0024207034148275852,0.0024207034148275852,1e-04,0.8799999952316284,0.3630775511264801,0.3630775511264801
821,1.0,0.0024168535601347685,0.0024168535601347685,1e-04,0.8799999952316284,0.36377212405204773,0.36377212405204773
822,1.0,0.002414039568975568,0.002414039568975568,1e-04,0.8799999952316284,0.3625504970550537,0.3625504970550537
823,1.0,0.0024105936754494905,0.0024105936754494905,1e-04,0.8799999952316284,0.3622630834579468,0.3622630834579468
824,1.0,0.002406484680250287,0.002406484680250287,1e-04,0.8799999952316284,0.3631271421909332,0.3631271421909332
825,1.0,0.002401193371042609,0.002401193371042609,1e-04,0.8799999952316284,0.3628334701061249,0.3628334701061249
826,1.0,0.002397487172856927,0.002397487172856927,1e-04,0.8799999952316284,0.3640158772468567,0.3640158772468567
827,1.0,0.002393615199252963,0.002393615199252963,1e-04,0.8799999952316284,0.3629832863807678,0.3629832863807678
828,1.0,0.0023887581191956997,0.0023887581191956997,1e-04,0.8799999952316284,0.3643474280834198,0.3643474280834198
829,1.0,0.0023846132680773735,0.0023846132680773735,1e-04,0.8799999952316284,0.36487677693367004,0.36487677693367004
830,1.0,0.002381082158535719,0.002381082158535719,1e-04,0.8799999952316284,0.3637036383152008,0.3637036383152008
831,1.0,0.0023766886442899704,0.0023766886442899704,1e-04,0.8799999952316284,0.3629010021686554,0.3629010021686554
832,1.0,0.0023727831430733204,0.0023727831430733204,1e-04,0.8799999952316284,0.36227160692214966,0.36227160692214966
833,1.0,0.0023697223514318466,0.0023697223514318466,1e-04,0.8799999952316284,0.3632632791996002,0.3632632791996002
834,1.0,0.002365530701354146,0.002365530701354146,1e-04,0.8799999952316284,0.36475998163223267,0.36475998163223267
835,1.0,0.002361741615459323,0.002361741615459323,1e-04,0.8799999952316284,0.3637636601924896,0.3637636601924896
836,1.0,0.002357777440920472,0.002357777440920472,1e-04,0.8799999952316284,0.36389103531837463,0.36389103531837463
837,1.0,0.0023530293256044388,0.0023530293256044388,1e-04,0.8799999952316284,0.3634113371372223,0.3634113371372223
838,1.0,0.0023490446619689465,0.0023490446619689465,1e-04,0.8799999952316284,0.363356351852417,0.363356351852417
839,1.0,0.0023450087755918503,0.0023450087755918503,1e-04,0.8799999952316284,0.3641796410083771,0.3641796410083771
840,1.0,0.002341131679713726,0.002341131679713726,1e-04,0.8799999952316284,0.3638286292552948,0.3638286292552948
841,1.0,0.0023369782138615847,0.0023369782138615847,1e-04,0.8799999952316284,0.364828884601593,0.364828884601593
842,1.0,0.0023332617711275816,0.0023332617711275816,1e-04,0.8799999952316284,0.3649543523788452,0.3649543523788452
843,1.0,0.0023297297302633524,0.0023297297302633524,1e-04,0.8799999952316284,0.36420151591300964,0.36420151591300964
844,1.0,0.002325549954548478,0.002325549954548478,1e-04,0.8799999952316284,0.36449509859085083,0.36449509859085083
845,1.0,0.002321785781532526,0.002321785781532526,1e-04,0.8799999952316284,0.3633268475532532,0.3633268475532532
846,1.0,0.0023181720171123743,0.0023181720171123743,1e-04,0.8799999952316284,0.36510661244392395,0.36510661244392395
847,1.0,0.002314036712050438,0.002314036712050438,1e-04,0.8799999952316284,0.3659026622772217,0.3659026622772217
848,1.0,0.002310189651325345,0.002310189651325345,1e-04,0.8799999952316284,0.36666595935821533,0.36666595935821533
849,1.0,0.0023063565604388714,0.0023063565604388714,1e-04,0.8799999952316284,0.36601048707962036,0.36601048707962036
850,1.0,0.002302529290318489,0.002302529290318489,1e-04,0.8799999952316284,0.3654079735279083,0.3654079735279083
851,1.0,0.002298497362062335,0.002298497362062335,1e-04,0.8799999952316284,0.3660767674446106,0.3660767674446106
852,1.0,0.002294171368703246,0.002294171368703246,1e-04,0.8799999952316284,0.36615145206451416,0.36615145206451416
853,1.0,0.002289852360263467,0.002289852360263467,1e-04,0.8799999952316284,0.36570683121681213,0.36570683121681213
854,1.0,0.0022861731704324484,0.0022861731704324484,1e-04,0.8799999952316284,0.3650412857532501,0.3650412857532501
855,1.0,0.002282913075760007,0.002282913075760007,1e-04,0.8799999952316284,0.36620867252349854,0.36620867252349854
856,1.0,0.0022793265525251627,0.0022793265525251627,1e-04,0.8799999952316284,0.366816908121109,0.366816908121109
857,1.0,0.0022757642436772585,0.0022757642436772585,1e-04,0.8799999952316284,0.3679172396659851,0.3679172396659851
858,1.0,0.0022706917952746153,0.0022706917952746153,1e-04,0.8799999952316284,0.3667406439781189,0.3667406439781189
859,1.0,0.0022673828061670065,0.0022673828061670065,1e-04,0.8799999952316284,0.3670586049556732,0.3670586049556732
860,1.0,0.0022636509966105223,0.0022636509966105223,1e-04,0.8799999952316284,0.3668164312839508,0.3668164312839508
861,1.0,0.00226016528904438,0.00226016528904438,1e-04,0.8799999952316284,0.3670863211154938,0.3670863211154938
862,1.0,0.002256301697343588,0.002256301697343588,1e-04,0.8799999952316284,0.36836665868759155,0.36836665868759155
863,1.0,0.002253912156447768,0.002253912156447768,1e-04,0.8799999952316284,0.3657836616039276,0.3657836616039276
864,1.0,0.002248544478788972,0.002248544478788972,1e-04,0.8799999952316284,0.36603274941444397,0.36603274941444397
865,1.0,0.0022454194258898497,0.0022454194258898497,1e-04,0.8799999952316284,0.36709868907928467,0.36709868907928467
866,1.0,0.0022417947184294462,0.0022417947184294462,1e-04,0.8799999952316284,0.3651260733604431,0.3651260733604431
867,1.0,0.002238417277112603,0.002238417277112603,1e-04,0.8799999952316284,0.3676443099975586,0.3676443099975586
868,1.0,0.0022343983873724937,0.0022343983873724937,1e-04,0.8799999952316284,0.36700674891471863,0.36700674891471863
869,1.0,0.0022304272279143333,0.0022304272279143333,1e-04,0.8799999952316284,0.366397500038147,0.366397500038147
870,1.0,0.002226885175332427,0.002226885175332427,1e-04,0.8799999952316284,0.3683505356311798,0.3683505356311798
871,1.0,0.0022240912076085806,0.0022240912076085806,1e-04,0.8799999952316284,0.3662981688976288,0.3662981688976288
872,1.0,0.0022191577591001987,0.0022191577591001987,1e-04,0.8799999952316284,0.36631226539611816,0.36631226539611816
873,1.0,0.0022146878764033318,0.0022146878764033318,1e-04,0.8799999952316284,0.3678271770477295,0.3678271770477295
874,1.0,0.002211917657405138,0.002211917657405138,1e-04,0.8799999952316284,0.3646410405635834,0.3646410405635834
875,1.0,0.0022083469666540623,0.0022083469666540623,1e-04,0.8799999952316284,0.3659396469593048,0.3659396469593048
876,1.0,0.002203854499384761,0.002203854499384761,1e-04,0.8799999952316284,0.36716392636299133,0.36716392636299133
877,1.0,0.002200764138251543,0.002200764138251543,1e-04,0.8799999952316284,0.3663593530654907,0.3663593530654907
878,1.0,0.002198262605816126,0.002198262605816126,1e-04,0.8799999952316284,0.36885902285575867,0.36885902285575867
879,1.0,0.002195006934925914,0.002195006934925914,1e-04,0.8799999952316284,0.36575689911842346,0.36575689911842346
880,1.0,0.0021904073655605316,0.0021904073655605316,1e-04,0.8799999952316284,0.3656536042690277,0.3656536042690277
881,1.0,0.0021866033785045147,0.0021866033785045147,1e-04,0.8799999952316284,0.3687157928943634,0.3687157928943634
882,1.0,0.002183915814384818,0.002183915814384818,1e-04,0.8799999952316284,0.36712872982025146,0.36712872982025146
883,1.0,0.002180534414947033,0.002180534414947033,1e-04,0.8799999952316284,0.36745578050613403,0.36745578050613403
884,1.0,0.002175805624574423,0.002175805624574423,1e-04,0.8799999952316284,0.36694785952568054,0.36694785952568054
885,1.0,0.002173055661842227,0.002173055661842227,1e-04,0.8799999952316284,0.3657005727291107,0.3657005727291107
886,1.0,0.002168880309909582,0.002168880309909582,1e-04,0.8799999952316284,0.36874037981033325,0.36874037981033325
887,1.0,0.0021658942569047213,0.0021658942569047213,1e-04,0.8799999952316284,0.3695036768913269,0.3695036768913269
888,1.0,0.0021617142483592033,0.0021617142483592033,1e-04,0.8799999952316284,0.3673374056816101,0.3673374056816101
889,1.0,0.0021584562491625547,0.0021584562491625547,1e-04,0.8799999952316284,0.3692578375339508,0.3692578375339508
890,1.0,0.002155354479327798,0.002155354479327798,1e-04,0.8799999952316284,0.36738720536231995,0.36738720536231995
891,1.0,0.0021513798274099827,0.0021513798274099827,1e-04,0.8799999952316284,0.36814430356025696,0.36814430356025696
892,1.0,0.002147483406588435,0.002147483406588435,1e-04,0.8799999952316284,0.3705297112464905,0.3705297112464905
893,1.0,0.0021448961924761534,0.0021448961924761534,1e-04,0.8799999952316284,0.3676331341266632,0.3676331341266632
894,1.0,0.0021410949993878603,0.0021410949993878603,1e-04,0.8799999952316284,0.36902305483818054,0.36902305483818054
895,1.0,0.0021369601599872112,0.0021369601599872112,1e-04,0.8799999952316284,0.36988604068756104,0.36988604068756104
896,1.0,0.0021336423233151436,0.0021336423233151436,1e-04,0.8799999952316284,0.3689374029636383,0.3689374029636383
897,1.0,0.002131361048668623,0.002131361048668623,1e-04,0.8799999952316284,0.3713516294956207,0.3713516294956207
898,1.0,0.0021269014105200768,0.0021269014105200768,1e-04,0.8799999952316284,0.3698630630970001,0.3698630630970001
899,1.0,0.0021229644771665335,0.0021229644771665335,1e-04,0.8799999952316284,0.3695930540561676,0.3695930540561676
900,1.0,0.002119437325745821,0.002119437325745821,1e-04,0.8799999952316284,0.37103021144866943,0.37103021144866943
901,1.0,0.0021158328745514154,0.0021158328745514154,1e-04,0.8799999952316284,0.3700175881385803,0.3700175881385803
902,1.0,0.002112432150170207,0.002112432150170207,1e-04,0.8799999952316284,0.3727482259273529,0.3727482259273529
903,1.0,0.002108897315338254,0.002108897315338254,1e-04,0.8799999952316284,0.37237852811813354,0.37237852811813354
904,1.0,0.002105570398271084,0.002105570398271084,1e-04,0.8799999952316284,0.3715653121471405,0.3715653121471405
905,1.0,0.0021021824795752764,0.0021021824795752764,1e-04,0.8799999952316284,0.3732171654701233,0.3732171654701233
906,1.0,0.0020987277384847403,0.0020987277384847403,1e-04,0.8799999952316284,0.37137892842292786,0.37137892842292786
907,1.0,0.0020949039608240128,0.0020949039608240128,1e-04,0.8799999952316284,0.37298011779785156,0.37298011779785156
908,1.0,0.0020912892650812864,0.0020912892650812864,1e-04,0.8799999952316284,0.3727421164512634,0.3727421164512634
909,1.0,0.0020881027448922396,0.0020881027448922396,1e-04,0.8799999952316284,0.3720651865005493,0.3720651865005493
910,1.0,0.0020844615064561367,0.0020844615064561367,1e-04,0.8799999952316284,0.37221068143844604,0.37221068143844604
911,1.0,0.002080930396914482,0.002080930396914482,1e-04,0.8799999952316284,0.3725990951061249,0.3725990951061249
912,1.0,0.0020769829861819744,0.0020769829861819744,1e-04,0.8899999856948853,0.3739686608314514,0.3739686608314514
913,1.0,0.002074713818728924,0.002074713818728924,1e-04,0.8799999952316284,0.3722212314605713,0.3722212314605713
914,1.0,0.0020707722287625074,0.0020707722287625074,1e-04,0.8799999952316284,0.3722213804721832,0.3722213804721832
915,1.0,0.0020677163265645504,0.0020677163265645504,1e-04,0.8799999952316284,0.3725075125694275,0.3725075125694275
916,1.0,0.002064679516479373,0.002064679516479373,1e-04,0.8799999952316284,0.3732530474662781,0.3732530474662781
917,1.0,0.0020606773905456066,0.0020606773905456066,1e-04,0.8899999856948853,0.37455737590789795,0.37455737590789795
918,1.0,0.0020578443072736263,0.0020578443072736263,1e-04,0.8799999952316284,0.3724121153354645,0.3724121153354645
919,1.0,0.0020540179684758186,0.0020540179684758186,1e-04,0.8799999952316284,0.3732540011405945,0.3732540011405945
920,1.0,0.002050546696409583,0.002050546696409583,1e-04,0.8799999952316284,0.37294521927833557,0.37294521927833557
921,1.0,0.0020474540069699287,0.0020474540069699287,1e-04,0.8799999952316284,0.3733489215373993,0.3733489215373993
922,1.0,0.002044369699433446,0.002044369699433446,1e-04,0.8899999856948853,0.37365031242370605,0.37365031242370605
923,1.0,0.0020411363802850246,0.0020411363802850246,1e-04,0.8799999952316284,0.37251150608062744,0.37251150608062744
924,1.0,0.002038282807916403,0.002038282807916403,1e-04,0.8899999856948853,0.37383487820625305,0.37383487820625305
925,1.0,0.0020345060620456934,0.0020345060620456934,1e-04,0.8799999952316284,0.372445672750473,0.372445672750473
926,1.0,0.0020318704191595316,0.0020318704191595316,1e-04,0.8899999856948853,0.3747589588165283,0.3747589588165283
927,1.0,0.002028448972851038,0.002028448972851038,1e-04,0.8799999952316284,0.37299349904060364,0.37299349904060364
928,1.0,0.002024625428020954,0.002024625428020954,1e-04,0.8899999856948853,0.37334582209587097,0.37334582209587097
929,1.0,0.0020210137590765953,0.0020210137590765953,1e-04,0.8899999856948853,0.3749191164970398,0.3749191164970398
930,1.0,0.002018627477809787,0.002018627477809787,1e-04,0.8799999952316284,0.3722873032093048,0.3722873032093048
931,1.0,0.002015488687902689,0.002015488687902689,1e-04,0.8899999856948853,0.37532562017440796,0.37532562017440796
932,1.0,0.0020120141562074423,0.0020120141562074423,1e-04,0.8899999856948853,0.3741206228733063,0.3741206228733063
933,1.0,0.0020080397371202707,0.0020080397371202707,1e-04,0.8899999856948853,0.374200701713562,0.374200701713562
934,1.0,0.002004342619329691,0.002004342619329691,1e-04,0.8899999856948853,0.3747599124908447,0.3747599124908447
935,1.0,0.002001755405217409,0.002001755405217409,1e-04,0.8799999952316284,0.37261420488357544,0.37261420488357544
936,1.0,0.0019984839018434286,0.0019984839018434286,1e-04,0.8899999856948853,0.37380316853523254,0.37380316853523254
937,1.0,0.0019951071590185165,0.0019951071590185165,1e-04,0.8799999952316284,0.3726573586463928,0.3726573586463928
938,1.0,0.0019918542820960283,0.0019918542820960283,1e-04,0.8899999856948853,0.37387606501579285,0.37387606501579285
939,1.0,0.001988491043448448,0.001988491043448448,1e-04,0.8899999856948853,0.3739897608757019,0.3739897608757019
940,1.0,0.001985351089388132,0.001985351089388132,1e-04,0.8799999952316284,0.3728400468826294,0.3728400468826294
941,1.0,0.001981283538043499,0.001981283538043499,1e-04,0.8899999856948853,0.3735238015651703,0.3735238015651703
942,1.0,0.001979312626644969,0.001979312626644969,1e-04,0.8799999952316284,0.3721001446247101,0.3721001446247101
943,1.0,0.0019764001481235027,0.0019764001481235027,1e-04,0.8899999856948853,0.3745446503162384,0.3745446503162384
944,1.0,0.001973286736756563,0.001973286736756563,1e-04,0.8799999952316284,0.3733367621898651,0.3733367621898651
945,1.0,0.00197050254791975,0.00197050254791975,1e-04,0.8799999952316284,0.37216100096702576,0.37216100096702576
946,1.0,0.0019673507194966078,0.0019673507194966078,1e-04,0.8799999952316284,0.3724353313446045,0.3724353313446045
947,1.0,0.001964231487363577,0.001964231487363577,1e-04,0.8799999952316284,0.370888888835907,0.370888888835907
948,1.0,0.001961178844794631,0.001961178844794631,1e-04,0.8899999856948853,0.37339454889297485,0.37339454889297485
949,1.0,0.0019571944139897823,0.0019571944139897823,1e-04,0.8799999952316284,0.37268245220184326,0.37268245220184326
950,1.0,0.0019541699439287186,0.0019541699439287186,1e-04,0.8799999952316284,0.3730739951133728,0.3730739951133728
951,1.0,0.0019506989046931267,0.0019506989046931267,1e-04,0.8799999952316284,0.3728446662425995,0.3728446662425995
952,1.0,0.0019477474270388484,0.0019477474270388484,1e-04,0.8799999952316284,0.37316375970840454,0.37316375970840454
953,1.0,0.0019442522898316383,0.0019442522898316383,1e-04,0.8899999856948853,0.37415286898612976,0.37415286898612976
954,1.0,0.0019410799723118544,0.0019410799723118544,1e-04,0.8899999856948853,0.37404030561447144,0.37404030561447144
955,1.0,0.0019377348944544792,0.0019377348944544792,1e-04,0.8799999952316284,0.3734184205532074,0.3734184205532074
956,1.0,0.0019351467490196228,0.0019351467490196228,1e-04,0.8899999856948853,0.374343603849411,0.374343603849411
957,1.0,0.0019323219312354922,0.0019323219312354922,1e-04,0.8799999952316284,0.37213173508644104,0.37213173508644104
958,1.0,0.0019301122520118952,0.0019301122520118952,1e-04,0.8899999856948853,0.37479251623153687,0.37479251623153687
959,1.0,0.0019262300338596106,0.0019262300338596106,1e-04,0.8899999856948853,0.3751247525215149,0.3751247525215149
960,1.0,0.0019237934611737728,0.0019237934611737728,1e-04,0.8899999856948853,0.3741132616996765,0.3741132616996765
961,1.0,0.0019201744580641389,0.0019201744580641389,1e-04,0.8899999856948853,0.3749755024909973,0.3749755024909973
962,1.0,0.0019175868947058916,0.0019175868947058916,1e-04,0.8799999952316284,0.3730880618095398,0.3730880618095398
963,1.0,0.0019144276157021523,0.0019144276157021523,1e-04,0.8899999856948853,0.37508341670036316,0.37508341670036316
964,1.0,0.0019110111752524972,0.0019110111752524972,1e-04,0.8899999856948853,0.3743762969970703,0.3743762969970703
965,1.0,0.0019079158082604408,0.0019079158082604408,1e-04,0.8899999856948853,0.37428054213523865,0.37428054213523865
966,1.0,0.0019051381386816502,0.0019051381386816502,1e-04,0.8899999856948853,0.37486910820007324,0.37486910820007324
967,1.0,0.0019019624451175332,0.0019019624451175332,1e-04,0.8799999952316284,0.37369391322135925,0.37369391322135925
968,1.0,0.0018995945574715734,0.0018995945574715734,1e-04,0.8899999856948853,0.3756660521030426,0.3756660521030426
969,1.0,0.0018960078014060855,0.0018960078014060855,1e-04,0.8899999856948853,0.3742470443248749,0.3742470443248749
970,1.0,0.0018933909013867378,0.0018933909013867378,1e-04,0.8899999856948853,0.37491440773010254,0.37491440773010254
971,1.0,0.0018901751609519124,0.0018901751609519124,1e-04,0.8899999856948853,0.3763957619667053,0.3763957619667053
972,1.0,0.0018867382314056158,0.0018867382314056158,1e-04,0.8899999856948853,0.37478962540626526,0.37478962540626526
973,1.0,0.001884332625195384,0.001884332625195384,1e-04,0.8899999856948853,0.376352995634079,0.376352995634079
974,1.0,0.001881331903859973,0.001881331903859973,1e-04,0.8799999952316284,0.373879075050354,0.373879075050354
975,1.0,0.0018779269885271788,0.0018779269885271788,1e-04,0.8799999952316284,0.37352311611175537,0.37352311611175537
976,1.0,0.0018747607246041298,0.0018747607246041298,1e-04,0.8799999952316284,0.3734109103679657,0.3734109103679657
977,1.0,0.0018715282203629613,0.0018715282203629613,1e-04,0.8799999952316284,0.3728535771369934,0.3728535771369934
978,1.0,0.0018684943206608295,0.0018684943206608295,1e-04,0.8899999856948853,0.3739934265613556,0.3739934265613556
979,1.0,0.0018660998903214931,0.0018660998903214931,1e-04,0.8799999952316284,0.3728793263435364,0.3728793263435364
980,1.0,0.0018629725091159344,0.0018629725091159344,1e-04,0.8799999952316284,0.37407493591308594,0.37407493591308594
981,1.0,0.0018604191718623042,0.0018604191718623042,1e-04,0.8799999952316284,0.372894287109375,0.372894287109375
982,1.0,0.001857380848377943,0.001857380848377943,1e-04,0.8799999952316284,0.37281012535095215,0.37281012535095215
983,1.0,0.001854085479862988,0.001854085479862988,1e-04,0.8799999952316284,0.3738859295845032,0.3738859295845032
984,1.0,0.0018517263233661652,0.0018517263233661652,1e-04,0.8799999952316284,0.3723868131637573,0.3723868131637573
985,1.0,0.0018483276944607496,0.0018483276944607496,1e-04,0.8799999952316284,0.37338200211524963,0.37338200211524963
986,1.0,0.0018457508413121104,0.0018457508413121104,1e-04,0.8799999952316284,0.3718019425868988,0.3718019425868988
987,1.0,0.0018427892355248332,0.0018427892355248332,1e-04,0.8799999952316284,0.37269118428230286,0.37269118428230286
988,1.0,0.0018403814174234867,0.0018403814174234867,1e-04,0.8799999952316284,0.37174487113952637,0.37174487113952637
989,1.0,0.0018374655628576875,0.0018374655628576875,1e-04,0.8799999952316284,0.3719433546066284,0.3719433546066284
990,1.0,0.0018341786926612258,0.0018341786926612258,1e-04,0.8799999952316284,0.37183648347854614,0.37183648347854614
991,1.0,0.00183188880328089,0.00183188880328089,1e-04,0.8799999952316284,0.3704789876937866,0.3704789876937866
992,1.0,0.0018285888945683837,0.0018285888945683837,1e-04,0.8799999952316284,0.36973679065704346,0.36973679065704346
993,1.0,0.0018255547620356083,0.0018255547620356083,1e-04,0.8799999952316284,0.3682423532009125,0.3682423532009125
994,1.0,0.0018229731358587742,0.0018229731358587742,1e-04,0.8799999952316284,0.36966994404792786,0.36966994404792786
995,1.0,0.0018203977961093187,0.0018203977961093187,1e-04,0.8799999952316284,0.3684047758579254,0.3684047758579254
996,1.0,0.0018174669239670038,0.0018174669239670038,1e-04,0.8799999952316284,0.3697395622730255,0.3697395622730255
997,1.0,0.0018148412927985191,0.0018148412927985191,1e-04,0.8799999952316284,0.3685007095336914,0.3685007095336914
998,1.0,0.001811469323001802,0.001811469323001802,1e-04,0.8799999952316284,0.36770716309547424,0.36770716309547424
999,1.0,0.001808680477552116,0.001808680477552116,1e-04,0.8799999952316284,0.3670310080051422,0.3670310080051422
