epoch,accuracy,categorical_crossentropy,loss,lr,val_accuracy,val_categorical_crossentropy,val_loss
0,0.6899999976158142,0.6537669897079468,0.6537669897079468,0.001,0.6399999856948853,0.6905773282051086,0.6905773282051086
1,0.8100000023841858,0.48049119114875793,0.48049119114875793,0.001,0.6399999856948853,0.6884748339653015,0.6884748339653015
2,0.7900000214576721,0.41274312138557434,0.41274312138557434,0.001,0.6399999856948853,0.6874427795410156,0.6874427795410156
3,0.8899999856948853,0.3635426461696625,0.3635426461696625,0.001,0.6399999856948853,0.6863217949867249,0.6863217949867249
4,0.8899999856948853,0.3260539770126343,0.3260539770126343,0.001,0.6399999856948853,0.6853627562522888,0.6853627562522888
5,0.8799999952316284,0.2994328737258911,0.2994328737258911,0.001,0.6399999856948853,0.684508740901947,0.684508740901947
6,0.8899999856948853,0.2781044542789459,0.2781044542789459,0.001,0.6399999856948853,0.6835620999336243,0.6835620999336243
7,0.9100000262260437,0.25936365127563477,0.25936365127563477,0.001,0.6399999856948853,0.6824741363525391,0.6824741363525391
8,0.8999999761581421,0.24404217302799225,0.24404217302799225,0.001,0.6399999856948853,0.6815125942230225,0.6815125942230225
9,0.9100000262260437,0.2300347089767456,0.2300347089767456,0.001,0.6399999856948853,0.680715024471283,0.680715024471283
10,0.9300000071525574,0.21667242050170898,0.21667242050170898,0.001,0.6399999856948853,0.6797996759414673,0.6797996759414673
11,0.9399999976158142,0.20427045226097107,0.20427045226097107,0.001,0.6399999856948853,0.6792463660240173,0.6792463660240173
12,0.9599999785423279,0.19327658414840698,0.19327658414840698,0.001,0.6399999856948853,0.6791035532951355,0.6791035532951355
13,0.9599999785423279,0.18279005587100983,0.18279005587100983,0.001,0.6399999856948853,0.6790083050727844,0.6790083050727844
14,0.9599999785423279,0.17333360016345978,0.17333360016345978,0.001,0.6399999856948853,0.6794542074203491,0.6794542074203491
15,0.9599999785423279,0.1636248528957367,0.1636248528957367,0.001,0.6399999856948853,0.680164635181427,0.680164635181427
16,0.9700000286102295,0.15422417223453522,0.15422417223453522,0.001,0.6499999761581421,0.6810905337333679,0.6810905337333679
17,0.9700000286102295,0.1458822339773178,0.1458822339773178,0.001,0.6600000262260437,0.6823127865791321,0.6823127865791321
18,0.9700000286102295,0.138671413064003,0.138671413064003,0.001,0.6700000166893005,0.6830808520317078,0.6830808520317078
19,0.9700000286102295,0.13198357820510864,0.13198357820510864,0.001,0.8100000023841858,0.685466468334198,0.685466468334198
20,0.9700000286102295,0.12566527724266052,0.12566527724266052,0.001,0.7799999713897705,0.6867766380310059,0.6867766380310059
21,0.9700000286102295,0.11621718108654022,0.11621718108654022,0.001,0.75,0.6889448761940002,0.6889448761940002
22,0.9800000190734863,0.11067216098308563,0.11067216098308563,0.001,0.3700000047683716,0.6921286582946777,0.6921286582946777
23,0.9700000286102295,0.10552436858415604,0.10552436858415604,0.001,0.36000001430511475,0.6936559081077576,0.6936559081077576
24,0.9800000190734863,0.09673096984624863,0.09673096984624863,0.001,0.36000001430511475,0.6964991092681885,0.6964991092681885
25,0.9800000190734863,0.09119831025600433,0.09119831025600433,0.001,0.36000001430511475,0.7010970115661621,0.7010970115661621
26,0.9700000286102295,0.08850587159395218,0.08850587159395218,0.001,0.36000001430511475,0.7038738131523132,0.7038738131523132
27,0.9900000095367432,0.08240043371915817,0.08240043371915817,0.001,0.36000001430511475,0.70854651927948,0.70854651927948
28,0.9800000190734863,0.07568680495023727,0.07568680495023727,0.001,0.36000001430511475,0.7115721702575684,0.7115721702575684
29,0.9800000190734863,0.069501131772995,0.069501131772995,0.001,0.36000001430511475,0.7140901684761047,0.7140901684761047
30,0.9900000095367432,0.06860160082578659,0.06860160082578659,0.001,0.36000001430511475,0.7197199463844299,0.7197199463844299
31,0.9900000095367432,0.06745564192533493,0.06745564192533493,0.001,0.36000001430511475,0.7231408953666687,0.7231408953666687
32,1.0,0.05591033771634102,0.05591033771634102,0.001,0.36000001430511475,0.7259951829910278,0.7259951829910278
33,1.0,0.058990802615880966,0.058990802615880966,0.001,0.36000001430511475,0.731658399105072,0.731658399105072
34,0.9900000095367432,0.05817435309290886,0.05817435309290886,0.001,0.36000001430511475,0.7332602739334106,0.7332602739334106
35,1.0,0.05226678401231766,0.05226678401231766,0.001,0.36000001430511475,0.7354008555412292,0.7354008555412292
36,1.0,0.04998604953289032,0.04998604953289032,0.001,0.36000001430511475,0.7389490604400635,0.7389490604400635
37,1.0,0.0487842857837677,0.0487842857837677,0.001,0.36000001430511475,0.7436123490333557,0.7436123490333557
38,1.0,0.0388706810772419,0.0388706810772419,0.001,0.36000001430511475,0.7447512745857239,0.7447512745857239
39,1.0,0.04278627410531044,0.04278627410531044,0.001,0.36000001430511475,0.7446062564849854,0.7446062564849854
40,1.0,0.03441070020198822,0.03441070020198822,0.001,0.36000001430511475,0.74647057056427,0.74647057056427
41,1.0,0.03917562589049339,0.03917562589049339,0.001,0.36000001430511475,0.7501752376556396,0.7501752376556396
42,1.0,0.02828328125178814,0.02828328125178814,0.001,0.36000001430511475,0.753477931022644,0.753477931022644
43,1.0,0.03457939252257347,0.03457939252257347,0.001,0.36000001430511475,0.7549497485160828,0.7549497485160828
44,1.0,0.024998947978019714,0.024998947978019714,0.001,0.36000001430511475,0.7558785080909729,0.7558785080909729
45,1.0,0.02880917862057686,0.02880917862057686,0.001,0.36000001430511475,0.7572417259216309,0.7572417259216309
46,1.0,0.022228214889764786,0.022228214889764786,0.001,0.36000001430511475,0.7597638964653015,0.7597638964653015
47,1.0,0.022348802536725998,0.022348802536725998,0.001,0.36000001430511475,0.7626290321350098,0.7626290321350098
48,1.0,0.019865697249770164,0.019865697249770164,0.001,0.36000001430511475,0.7648345828056335,0.7648345828056335
49,1.0,0.01727532222867012,0.01727532222867012,0.001,0.36000001430511475,0.7655835151672363,0.7655835151672363
50,1.0,0.018380936235189438,0.018380936235189438,0.001,0.36000001430511475,0.7661329507827759,0.7661329507827759
51,1.0,0.015071299858391285,0.015071299858391285,0.001,0.36000001430511475,0.7678648233413696,0.7678648233413696
52,1.0,0.015042774379253387,0.015042774379253387,0.001,0.36000001430511475,0.7705327868461609,0.7705327868461609
53,1.0,0.013122670352458954,0.013122670352458954,0.001,0.36000001430511475,0.7736476063728333,0.7736476063728333
54,1.0,0.013228131458163261,0.013228131458163261,0.001,0.36000001430511475,0.7770004272460938,0.7770004272460938
55,1.0,0.011008577421307564,0.011008577421307564,0.001,0.36000001430511475,0.7795926928520203,0.7795926928520203
56,1.0,0.01147492602467537,0.01147492602467537,0.001,0.36000001430511475,0.7820115685462952,0.7820115685462952
57,1.0,0.010230976156890392,0.010230976156890392,0.001,0.36000001430511475,0.7855586409568787,0.7855586409568787
58,1.0,0.009265046566724777,0.009265046566724777,0.001,0.36000001430511475,0.7899799942970276,0.7899799942970276
59,1.0,0.009304159320890903,0.009304159320890903,0.001,0.36000001430511475,0.7932786345481873,0.7932786345481873
60,1.0,0.008313571102917194,0.008313571102917194,0.001,0.36000001430511475,0.7954521179199219,0.7954521179199219
61,1.0,0.0075781745836138725,0.0075781745836138725,0.001,0.36000001430511475,0.7977067828178406,0.7977067828178406
62,1.0,0.007933218032121658,0.007933218032121658,0.001,0.36000001430511475,0.7998690009117126,0.7998690009117126
63,1.0,0.006720313802361488,0.006720313802361488,0.0005,0.36000001430511475,0.8009931445121765,0.8009931445121765
64,1.0,0.006490576080977917,0.006490576080977917,0.0005,0.36000001430511475,0.801964521408081,0.801964521408081
65,1.0,0.006331209093332291,0.006331209093332291,0.0005,0.36000001430511475,0.8027686476707458,0.8027686476707458
66,1.0,0.006196876056492329,0.006196876056492329,0.0005,0.36000001430511475,0.8036590814590454,0.8036590814590454
67,1.0,0.0059846434742212296,0.0059846434742212296,0.0005,0.36000001430511475,0.8048457503318787,0.8048457503318787
68,1.0,0.005801862571388483,0.005801862571388483,0.0005,0.36000001430511475,0.8064358234405518,0.8064358234405518
69,1.0,0.005589679349213839,0.005589679349213839,0.0005,0.36000001430511475,0.8083839416503906,0.8083839416503906
70,1.0,0.005373354069888592,0.005373354069888592,0.0005,0.36000001430511475,0.8102037310600281,0.8102037310600281
71,1.0,0.005363987758755684,0.005363987758755684,0.0005,0.36000001430511475,0.8115994334220886,0.8115994334220886
72,1.0,0.00523847620934248,0.00523847620934248,0.0005,0.36000001430511475,0.8125465512275696,0.8125465512275696
73,1.0,0.005030578002333641,0.005030578002333641,0.0005,0.36000001430511475,0.8134030699729919,0.8134030699729919
74,1.0,0.004905363544821739,0.004905363544821739,0.0005,0.36000001430511475,0.8143806457519531,0.8143806457519531
75,1.0,0.004816174041479826,0.004816174041479826,0.0005,0.36000001430511475,0.8156207799911499,0.8156207799911499
76,1.0,0.004766969941556454,0.004766969941556454,0.0005,0.36000001430511475,0.8169349431991577,0.8169349431991577
77,1.0,0.0046486328355968,0.0046486328355968,0.0005,0.36000001430511475,0.8181702494621277,0.8181702494621277
78,1.0,0.004497140180319548,0.004497140180319548,0.0005,0.36000001430511475,0.8192543983459473,0.8192543983459473
79,1.0,0.004427930805832148,0.004427930805832148,0.0005,0.36000001430511475,0.8202722072601318,0.8202722072601318
80,1.0,0.004354868084192276,0.004354868084192276,0.0005,0.36000001430511475,0.821105420589447,0.821105420589447
81,1.0,0.004273575264960527,0.004273575264960527,0.0005,0.36000001430511475,0.8218000531196594,0.8218000531196594
82,1.0,0.004185534548014402,0.004185534548014402,0.0005,0.36000001430511475,0.8224526047706604,0.8224526047706604
83,1.0,0.004083744715899229,0.004083744715899229,0.0005,0.36000001430511475,0.8230345845222473,0.8230345845222473
84,1.0,0.0040256567299366,0.0040256567299366,0.0005,0.36000001430511475,0.8236523270606995,0.8236523270606995
85,1.0,0.003966651391237974,0.003966651391237974,0.0005,0.36000001430511475,0.8243609070777893,0.8243609070777893
86,1.0,0.0038863143417984247,0.0038863143417984247,0.0005,0.36000001430511475,0.8250174522399902,0.8250174522399902
87,1.0,0.003823865670710802,0.003823865670710802,0.0005,0.36000001430511475,0.8255805969238281,0.8255805969238281
88,1.0,0.003760159946978092,0.003760159946978092,0.0005,0.36000001430511475,0.8260930776596069,0.8260930776596069
89,1.0,0.003700063331052661,0.003700063331052661,0.0005,0.36000001430511475,0.8265476822853088,0.8265476822853088
90,1.0,0.003646571421995759,0.003646571421995759,0.0005,0.36000001430511475,0.827075719833374,0.827075719833374
91,1.0,0.003585921134799719,0.003585921134799719,0.0005,0.36000001430511475,0.8276705741882324,0.8276705741882324
92,1.0,0.003527724416926503,0.003527724416926503,0.0005,0.36000001430511475,0.8282855749130249,0.8282855749130249
93,1.0,0.0034673409536480904,0.0034673409536480904,0.0005,0.36000001430511475,0.8288776278495789,0.8288776278495789
94,1.0,0.003418904496356845,0.003418904496356845,0.0005,0.36000001430511475,0.8295843005180359,0.8295843005180359
95,1.0,0.0033738380298018456,0.0033738380298018456,0.0005,0.36000001430511475,0.83037269115448,0.83037269115448
96,1.0,0.0033195691648870707,0.0033195691648870707,0.0005,0.36000001430511475,0.8310583233833313,0.8310583233833313
97,1.0,0.0032705566845834255,0.0032705566845834255,0.0005,0.36000001430511475,0.8317410945892334,0.8317410945892334
98,1.0,0.003223688341677189,0.003223688341677189,0.0005,0.36000001430511475,0.8322905898094177,0.8322905898094177
99,1.0,0.00318145751953125,0.00318145751953125,0.0005,0.36000001430511475,0.8329523205757141,0.8329523205757141
100,1.0,0.0031383130699396133,0.0031383130699396133,0.0005,0.36000001430511475,0.833702564239502,0.833702564239502
101,1.0,0.0030918417032808065,0.0030918417032808065,0.0005,0.36000001430511475,0.8344825506210327,0.8344825506210327
102,1.0,0.003049298422411084,0.003049298422411084,0.0005,0.36000001430511475,0.8352018594741821,0.8352018594741821
103,1.0,0.0030114129185676575,0.0030114129185676575,0.0005,0.36000001430511475,0.8358023166656494,0.8358023166656494
104,1.0,0.0029730023816227913,0.0029730023816227913,0.0005,0.36000001430511475,0.8363885283470154,0.8363885283470154
105,1.0,0.0029339557513594627,0.0029339557513594627,0.0005,0.36000001430511475,0.836946427822113,0.836946427822113
106,1.0,0.0028931633569300175,0.0028931633569300175,0.0005,0.36000001430511475,0.8376535773277283,0.8376535773277283
107,1.0,0.0028594336472451687,0.0028594336472451687,0.0005,0.36000001430511475,0.8382492065429688,0.8382492065429688
108,1.0,0.002824375405907631,0.002824375405907631,0.0005,0.36000001430511475,0.8390290141105652,0.8390290141105652
109,1.0,0.0027889013290405273,0.0027889013290405273,0.0005,0.36000001430511475,0.839671790599823,0.839671790599823
110,1.0,0.0027544666081666946,0.0027544666081666946,0.0005,0.36000001430511475,0.840338945388794,0.840338945388794
111,1.0,0.0027224633377045393,0.0027224633377045393,0.0005,0.36000001430511475,0.8408960103988647,0.8408960103988647
112,1.0,0.0026897445786744356,0.0026897445786744356,0.0005,0.36000001430511475,0.8413532972335815,0.8413532972335815
113,1.0,0.002658141776919365,0.002658141776919365,0.00025,0.36000001430511475,0.8418201208114624,0.8418201208114624
114,1.0,0.0026417840272188187,0.0026417840272188187,0.00025,0.36000001430511475,0.8423333168029785,0.8423333168029785
115,1.0,0.0026257371064275503,0.0026257371064275503,0.00025,0.36000001430511475,0.8428971767425537,0.8428971767425537
116,1.0,0.0026099318638443947,0.0026099318638443947,0.00025,0.36000001430511475,0.8435137867927551,0.8435137867927551
117,1.0,0.0025958106853067875,0.0025958106853067875,0.00025,0.36000001430511475,0.8441399335861206,0.8441399335861206
118,1.0,0.0025809970684349537,0.0025809970684349537,0.00025,0.36000001430511475,0.8446922302246094,0.8446922302246094
119,1.0,0.0025643957778811455,0.0025643957778811455,0.00025,0.36000001430511475,0.8452862501144409,0.8452862501144409
120,1.0,0.002550420816987753,0.002550420816987753,0.00025,0.36000001430511475,0.8458845019340515,0.8458845019340515
121,1.0,0.002536521293222904,0.002536521293222904,0.00025,0.36000001430511475,0.8465099930763245,0.8465099930763245
122,1.0,0.002522214548662305,0.002522214548662305,0.00025,0.36000001430511475,0.8471031188964844,0.8471031188964844
123,1.0,0.002509078476577997,0.002509078476577997,0.00025,0.36000001430511475,0.8477775454521179,0.8477775454521179
124,1.0,0.002495970344170928,0.002495970344170928,0.00025,0.36000001430511475,0.8484657406806946,0.8484657406806946
125,1.0,0.0024816226214170456,0.0024816226214170456,0.00025,0.36000001430511475,0.8492042422294617,0.8492042422294617
126,1.0,0.002468282822519541,0.002468282822519541,0.00025,0.36000001430511475,0.849851667881012,0.849851667881012
127,1.0,0.0024544489569962025,0.0024544489569962025,0.00025,0.36000001430511475,0.850628137588501,0.850628137588501
128,1.0,0.0024411953054368496,0.0024411953054368496,0.00025,0.36000001430511475,0.8514305353164673,0.8514305353164673
129,1.0,0.0024277502670884132,0.0024277502670884132,0.00025,0.36000001430511475,0.8522458672523499,0.8522458672523499
130,1.0,0.0024148228112608194,0.0024148228112608194,0.00025,0.36000001430511475,0.8530722856521606,0.8530722856521606
131,1.0,0.0024024522863328457,0.0024024522863328457,0.00025,0.36000001430511475,0.8540034294128418,0.8540034294128418
132,1.0,0.002389869187027216,0.002389869187027216,0.00025,0.36000001430511475,0.8548964858055115,0.8548964858055115
133,1.0,0.002376761520281434,0.002376761520281434,0.00025,0.36000001430511475,0.8558945655822754,0.8558945655822754
134,1.0,0.002364909742027521,0.002364909742027521,0.00025,0.36000001430511475,0.8568333983421326,0.8568333983421326
135,1.0,0.0023525753058493137,0.0023525753058493137,0.00025,0.36000001430511475,0.8578915596008301,0.8578915596008301
136,1.0,0.002339914906769991,0.002339914906769991,0.00025,0.36000001430511475,0.8588846325874329,0.8588846325874329
137,1.0,0.002328321570530534,0.002328321570530534,0.00025,0.36000001430511475,0.8600426316261292,0.8600426316261292
138,1.0,0.002315969206392765,0.002315969206392765,0.00025,0.36000001430511475,0.8611875772476196,0.8611875772476196
139,1.0,0.002303412416949868,0.002303412416949868,0.00025,0.36000001430511475,0.8623754382133484,0.8623754382133484
140,1.0,0.002291350858286023,0.002291350858286023,0.00025,0.36000001430511475,0.8635654449462891,0.8635654449462891
141,1.0,0.0022804243490099907,0.0022804243490099907,0.00025,0.36000001430511475,0.8647793531417847,0.8647793531417847
142,1.0,0.0022679222747683525,0.0022679222747683525,0.00025,0.36000001430511475,0.8659189343452454,0.8659189343452454
143,1.0,0.002256718697026372,0.002256718697026372,0.00025,0.36000001430511475,0.8671005368232727,0.8671005368232727
144,1.0,0.0022446296643465757,0.0022446296643465757,0.00025,0.36000001430511475,0.8683313727378845,0.8683313727378845
145,1.0,0.002233665669336915,0.002233665669336915,0.00025,0.36000001430511475,0.8697149753570557,0.8697149753570557
146,1.0,0.0022222904954105616,0.0022222904954105616,0.00025,0.36000001430511475,0.8710730075836182,0.8710730075836182
147,1.0,0.002209911122918129,0.002209911122918129,0.00025,0.36000001430511475,0.8724281787872314,0.8724281787872314
148,1.0,0.002198888687416911,0.002198888687416911,0.00025,0.36000001430511475,0.8737863898277283,0.8737863898277283
149,1.0,0.0021877523977309465,0.0021877523977309465,0.00025,0.36000001430511475,0.875195324420929,0.875195324420929
150,1.0,0.0021774908527731895,0.0021774908527731895,0.00025,0.36000001430511475,0.8765583038330078,0.8765583038330078
151,1.0,0.0021661948412656784,0.0021661948412656784,0.00025,0.36000001430511475,0.8779577612876892,0.8779577612876892
152,1.0,0.0021549758967012167,0.0021549758967012167,0.00025,0.36000001430511475,0.879360020160675,0.879360020160675
153,1.0,0.002144784899428487,0.002144784899428487,0.00025,0.36000001430511475,0.8809636831283569,0.8809636831283569
154,1.0,0.0021334877237677574,0.0021334877237677574,0.00025,0.36000001430511475,0.8824986815452576,0.8824986815452576
155,1.0,0.0021227470133453608,0.0021227470133453608,0.00025,0.36000001430511475,0.8840130567550659,0.8840130567550659
156,1.0,0.0021120989695191383,0.0021120989695191383,0.00025,0.36000001430511475,0.8856202960014343,0.8856202960014343
157,1.0,0.002102211583405733,0.002102211583405733,0.00025,0.36000001430511475,0.8871082067489624,0.8871082067489624
158,1.0,0.002091739559546113,0.002091739559546113,0.00025,0.36000001430511475,0.8888272047042847,0.8888272047042847
159,1.0,0.002081329468637705,0.002081329468637705,0.00025,0.36000001430511475,0.8904625177383423,0.8904625177383423
160,1.0,0.00207103812135756,0.00207103812135756,0.00025,0.36000001430511475,0.8921960592269897,0.8921960592269897
161,1.0,0.002060237107798457,0.002060237107798457,0.00025,0.36000001430511475,0.8938726782798767,0.8938726782798767
162,1.0,0.002049823757261038,0.002049823757261038,0.00025,0.36000001430511475,0.8956053853034973,0.8956053853034973
163,1.0,0.002040489809587598,0.002040489809587598,0.000125,0.36000001430511475,0.8974607586860657,0.8974607586860657
164,1.0,0.002035095589235425,0.002035095589235425,0.000125,0.36000001430511475,0.8992856740951538,0.8992856740951538
165,1.0,0.002030288800597191,0.002030288800597191,0.000125,0.36000001430511475,0.9011904001235962,0.9011904001235962
166,1.0,0.0020254282280802727,0.0020254282280802727,0.000125,0.36000001430511475,0.9030998945236206,0.9030998945236206
167,1.0,0.002020453102886677,0.002020453102886677,0.000125,0.36000001430511475,0.904971718788147,0.904971718788147
168,1.0,0.002016104059293866,0.002016104059293866,0.000125,0.36000001430511475,0.9069896936416626,0.9069896936416626
169,1.0,0.0020107782911509275,0.0020107782911509275,0.000125,0.36000001430511475,0.9090447425842285,0.9090447425842285
170,1.0,0.00200597383081913,0.00200597383081913,0.000125,0.36000001430511475,0.9110649824142456,0.9110649824142456
171,1.0,0.002001341665163636,0.002001341665163636,0.000125,0.36000001430511475,0.9132043719291687,0.9132043719291687
172,1.0,0.0019964168313890696,0.0019964168313890696,0.000125,0.36000001430511475,0.9153614044189453,0.9153614044189453
173,1.0,0.0019912784919142723,0.0019912784919142723,0.000125,0.36000001430511475,0.9175189733505249,0.9175189733505249
174,1.0,0.0019864810165017843,0.0019864810165017843,0.000125,0.36000001430511475,0.9197573065757751,0.9197573065757751
175,1.0,0.0019810216035693884,0.0019810216035693884,0.000125,0.36000001430511475,0.9220813512802124,0.9220813512802124
176,1.0,0.0019760888535529375,0.0019760888535529375,0.000125,0.36000001430511475,0.9243302941322327,0.9243302941322327
177,1.0,0.001971659017726779,0.001971659017726779,0.000125,0.36000001430511475,0.9266567826271057,0.9266567826271057
178,1.0,0.0019667288288474083,0.0019667288288474083,0.000125,0.36000001430511475,0.9289113879203796,0.9289113879203796
179,1.0,0.0019619592931121588,0.0019619592931121588,0.000125,0.36000001430511475,0.9313675165176392,0.9313675165176392
180,1.0,0.0019576079212129116,0.0019576079212129116,0.000125,0.36000001430511475,0.9338085651397705,0.9338085651397705
181,1.0,0.0019529795972630382,0.0019529795972630382,0.000125,0.36000001430511475,0.9362486004829407,0.9362486004829407
182,1.0,0.0019481537165120244,0.0019481537165120244,0.000125,0.36000001430511475,0.9387521147727966,0.9387521147727966
183,1.0,0.0019428343512117863,0.0019428343512117863,0.000125,0.36000001430511475,0.9411631226539612,0.9411631226539612
184,1.0,0.0019379538716748357,0.0019379538716748357,0.000125,0.36000001430511475,0.9436110854148865,0.9436110854148865
185,1.0,0.001933699008077383,0.001933699008077383,0.000125,0.36000001430511475,0.946245014667511,0.946245014667511
186,1.0,0.0019286872120574117,0.0019286872120574117,0.000125,0.36000001430511475,0.9489456415176392,0.9489456415176392
187,1.0,0.00192445854190737,0.00192445854190737,0.000125,0.36000001430511475,0.9516338109970093,0.9516338109970093
188,1.0,0.0019195968052372336,0.0019195968052372336,0.000125,0.36000001430511475,0.9542610049247742,0.9542610049247742
189,1.0,0.0019143192330375314,0.0019143192330375314,0.000125,0.36000001430511475,0.957003116607666,0.957003116607666
190,1.0,0.0019095712341368198,0.0019095712341368198,0.000125,0.36000001430511475,0.959700345993042,0.959700345993042
191,1.0,0.0019050533883273602,0.0019050533883273602,0.000125,0.36000001430511475,0.9624132513999939,0.9624132513999939
192,1.0,0.0019002166809514165,0.0019002166809514165,0.000125,0.36000001430511475,0.9651824235916138,0.9651824235916138
193,1.0,0.0018952945247292519,0.0018952945247292519,0.000125,0.36000001430511475,0.9681332111358643,0.9681332111358643
194,1.0,0.0018911052029579878,0.0018911052029579878,0.000125,0.36000001430511475,0.9711927771568298,0.9711927771568298
195,1.0,0.0018862023716792464,0.0018862023716792464,0.000125,0.36000001430511475,0.9742262363433838,0.9742262363433838
196,1.0,0.001881785225123167,0.001881785225123167,0.000125,0.36000001430511475,0.9772295951843262,0.9772295951843262
197,1.0,0.001876850612461567,0.001876850612461567,0.000125,0.36000001430511475,0.980265200138092,0.980265200138092
198,1.0,0.0018727189162746072,0.0018727189162746072,0.000125,0.36000001430511475,0.9832390546798706,0.9832390546798706
199,1.0,0.0018677168991416693,0.0018677168991416693,0.000125,0.36000001430511475,0.986238956451416,0.986238956451416
200,1.0,0.0018631138373166323,0.0018631138373166323,0.000125,0.36000001430511475,0.9893556237220764,0.9893556237220764
201,1.0,0.0018585689831525087,0.0018585689831525087,0.000125,0.36000001430511475,0.9925556182861328,0.9925556182861328
202,1.0,0.0018534011906012893,0.0018534011906012893,0.000125,0.36000001430511475,0.9958634376525879,0.9958634376525879
203,1.0,0.001849158201366663,0.001849158201366663,0.000125,0.36000001430511475,0.9989367723464966,0.9989367723464966
204,1.0,0.001844762358814478,0.001844762358814478,0.000125,0.36000001430511475,1.0021435022354126,1.0021435022354126
205,1.0,0.0018403265858069062,0.0018403265858069062,0.000125,0.36000001430511475,1.0055426359176636,1.0055426359176636
206,1.0,0.00183603644836694,0.00183603644836694,0.000125,0.36000001430511475,1.0089770555496216,1.0089770555496216
207,1.0,0.0018313962500542402,0.0018313962500542402,0.000125,0.36000001430511475,1.0123120546340942,1.0123120546340942
208,1.0,0.0018268005223944783,0.0018268005223944783,0.000125,0.36000001430511475,1.0156532526016235,1.0156532526016235
209,1.0,0.0018221356440335512,0.0018221356440335512,0.000125,0.36000001430511475,1.0190852880477905,1.0190852880477905
210,1.0,0.001817437820136547,0.001817437820136547,0.000125,0.36000001430511475,1.0226038694381714,1.0226038694381714
211,1.0,0.001812389469705522,0.001812389469705522,0.000125,0.36000001430511475,1.0262371301651,1.0262371301651
212,1.0,0.0018079552100971341,0.0018079552100971341,0.000125,0.36000001430511475,1.0297752618789673,1.0297752618789673
213,1.0,0.0018036578549072146,0.0018036578549072146,1e-04,0.36000001430511475,1.0334506034851074,1.0334506034851074
214,1.0,0.0018000216223299503,0.0018000216223299503,1e-04,0.36000001430511475,1.0371476411819458,1.0371476411819458
215,1.0,0.0017970041371881962,0.0017970041371881962,1e-04,0.36000001430511475,1.040865421295166,1.040865421295166
216,1.0,0.0017936007352545857,0.0017936007352545857,1e-04,0.36000001430511475,1.0445497035980225,1.0445497035980225
217,1.0,0.0017896551871672273,0.0017896551871672273,1e-04,0.36000001430511475,1.0483680963516235,1.0483680963516235
218,1.0,0.0017860247753560543,0.0017860247753560543,1e-04,0.36000001430511475,1.0520776510238647,1.0520776510238647
219,1.0,0.0017827886622399092,0.0017827886622399092,1e-04,0.36000001430511475,1.0557445287704468,1.0557445287704468
220,1.0,0.001778959296643734,0.001778959296643734,1e-04,0.36000001430511475,1.0595327615737915,1.0595327615737915
221,1.0,0.0017758880276232958,0.0017758880276232958,1e-04,0.36000001430511475,1.0634682178497314,1.0634682178497314
222,1.0,0.0017721408512443304,0.0017721408512443304,1e-04,0.36000001430511475,1.067266583442688,1.067266583442688
223,1.0,0.0017685375642031431,0.0017685375642031431,1e-04,0.36000001430511475,1.0709823369979858,1.0709823369979858
224,1.0,0.0017649579094722867,0.0017649579094722867,1e-04,0.36000001430511475,1.0748306512832642,1.0748306512832642
225,1.0,0.001762102940119803,0.001762102940119803,1e-04,0.36000001430511475,1.0787272453308105,1.0787272453308105
226,1.0,0.0017583448207005858,0.0017583448207005858,1e-04,0.36000001430511475,1.0826913118362427,1.0826913118362427
227,1.0,0.0017552028875797987,0.0017552028875797987,1e-04,0.36000001430511475,1.0866433382034302,1.0866433382034302
228,1.0,0.0017519383691251278,0.0017519383691251278,1e-04,0.36000001430511475,1.0907924175262451,1.0907924175262451
229,1.0,0.0017484207637608051,0.0017484207637608051,1e-04,0.36000001430511475,1.094679832458496,1.094679832458496
230,1.0,0.0017446265555918217,0.0017446265555918217,1e-04,0.36000001430511475,1.098710536956787,1.098710536956787
231,1.0,0.001741627580486238,0.001741627580486238,1e-04,0.36000001430511475,1.1028395891189575,1.1028395891189575
232,1.0,0.0017378563061356544,0.0017378563061356544,1e-04,0.36000001430511475,1.106773853302002,1.106773853302002
233,1.0,0.001734219491481781,0.001734219491481781,1e-04,0.36000001430511475,1.1108386516571045,1.1108386516571045
234,1.0,0.0017306064255535603,0.0017306064255535603,1e-04,0.36000001430511475,1.1149168014526367,1.1149168014526367
235,1.0,0.0017267775256186724,0.0017267775256186724,1e-04,0.36000001430511475,1.1188308000564575,1.1188308000564575
236,1.0,0.0017236231360584497,0.0017236231360584497,1e-04,0.36000001430511475,1.1228375434875488,1.1228375434875488
237,1.0,0.0017203752649948,0.0017203752649948,1e-04,0.36000001430511475,1.1269659996032715,1.1269659996032715
238,1.0,0.001716838451102376,0.001716838451102376,1e-04,0.36000001430511475,1.1310118436813354,1.1310118436813354
239,1.0,0.0017137277172878385,0.0017137277172878385,1e-04,0.36000001430511475,1.1352741718292236,1.1352741718292236
240,1.0,0.0017105964943766594,0.0017105964943766594,1e-04,0.36000001430511475,1.139534831047058,1.139534831047058
241,1.0,0.001707281917333603,0.001707281917333603,1e-04,0.36000001430511475,1.1436704397201538,1.1436704397201538
242,1.0,0.0017042094841599464,0.0017042094841599464,1e-04,0.36000001430511475,1.147885799407959,1.147885799407959
243,1.0,0.0017000860534608364,0.0017000860534608364,1e-04,0.36000001430511475,1.1520953178405762,1.1520953178405762
244,1.0,0.001696802326478064,0.001696802326478064,1e-04,0.36000001430511475,1.1563056707382202,1.1563056707382202
245,1.0,0.001693505677394569,0.001693505677394569,1e-04,0.36000001430511475,1.160556674003601,1.160556674003601
246,1.0,0.0016902406932786107,0.0016902406932786107,1e-04,0.36000001430511475,1.1646629571914673,1.1646629571914673
247,1.0,0.0016871780389919877,0.0016871780389919877,1e-04,0.36000001430511475,1.1687157154083252,1.1687157154083252
248,1.0,0.0016837187577039003,0.0016837187577039003,1e-04,0.36000001430511475,1.1729158163070679,1.1729158163070679
249,1.0,0.0016801957972347736,0.0016801957972347736,1e-04,0.36000001430511475,1.1772277355194092,1.1772277355194092
250,1.0,0.001677261432632804,0.001677261432632804,1e-04,0.36000001430511475,1.1816860437393188,1.1816860437393188
251,1.0,0.0016737272962927818,0.0016737272962927818,1e-04,0.36000001430511475,1.1861391067504883,1.1861391067504883
252,1.0,0.0016706155147403479,0.0016706155147403479,1e-04,0.36000001430511475,1.1905571222305298,1.1905571222305298
253,1.0,0.0016672846395522356,0.0016672846395522356,1e-04,0.36000001430511475,1.1947591304779053,1.1947591304779053
254,1.0,0.001663434668444097,0.001663434668444097,1e-04,0.36000001430511475,1.1990419626235962,1.1990419626235962
255,1.0,0.001659661647863686,0.001659661647863686,1e-04,0.36000001430511475,1.2034934759140015,1.2034934759140015
256,1.0,0.001656253240071237,0.001656253240071237,1e-04,0.36000001430511475,1.2077383995056152,1.2077383995056152
257,1.0,0.0016535173635929823,0.0016535173635929823,1e-04,0.36000001430511475,1.2121343612670898,1.2121343612670898
258,1.0,0.0016500777564942837,0.0016500777564942837,1e-04,0.36000001430511475,1.2164044380187988,1.2164044380187988
259,1.0,0.0016471032286062837,0.0016471032286062837,1e-04,0.36000001430511475,1.2207890748977661,1.2207890748977661
260,1.0,0.0016430914402008057,0.0016430914402008057,1e-04,0.36000001430511475,1.2250345945358276,1.2250345945358276
261,1.0,0.0016401766333729029,0.0016401766333729029,1e-04,0.36000001430511475,1.2295576333999634,1.2295576333999634
262,1.0,0.0016367557691410184,0.0016367557691410184,1e-04,0.36000001430511475,1.234027624130249,1.234027624130249
263,1.0,0.0016337803099304438,0.0016337803099304438,1e-04,0.36000001430511475,1.2384047508239746,1.2384047508239746
264,1.0,0.001630405429750681,0.001630405429750681,1e-04,0.36000001430511475,1.2427352666854858,1.2427352666854858
265,1.0,0.0016271600034087896,0.0016271600034087896,1e-04,0.36000001430511475,1.2469758987426758,1.2469758987426758
266,1.0,0.001623803866095841,0.001623803866095841,1e-04,0.36000001430511475,1.2510411739349365,1.2510411739349365
267,1.0,0.0016206948785111308,0.0016206948785111308,1e-04,0.36000001430511475,1.2552460432052612,1.2552460432052612
268,1.0,0.0016170958988368511,0.0016170958988368511,1e-04,0.36000001430511475,1.259569525718689,1.259569525718689
269,1.0,0.0016138448845595121,0.0016138448845595121,1e-04,0.36000001430511475,1.263747215270996,1.263747215270996
270,1.0,0.0016107965493574739,0.0016107965493574739,1e-04,0.36000001430511475,1.2680091857910156,1.2680091857910156
271,1.0,0.0016071441350504756,0.0016071441350504756,1e-04,0.36000001430511475,1.2720210552215576,1.2720210552215576
272,1.0,0.0016040700720623136,0.0016040700720623136,1e-04,0.36000001430511475,1.2761280536651611,1.2761280536651611
273,1.0,0.001600603573024273,0.001600603573024273,1e-04,0.36000001430511475,1.280288815498352,1.280288815498352
274,1.0,0.001597176305949688,0.001597176305949688,1e-04,0.36000001430511475,1.2842718362808228,1.2842718362808228
275,1.0,0.0015945530030876398,0.0015945530030876398,1e-04,0.36000001430511475,1.2881468534469604,1.2881468534469604
276,1.0,0.001591075793839991,0.001591075793839991,1e-04,0.36000001430511475,1.2920852899551392,1.2920852899551392
277,1.0,0.0015880631981417537,0.0015880631981417537,1e-04,0.36000001430511475,1.2961405515670776,1.2961405515670776
278,1.0,0.0015849416377022862,0.0015849416377022862,1e-04,0.36000001430511475,1.3001179695129395,1.3001179695129395
279,1.0,0.001581397489644587,0.001581397489644587,1e-04,0.36000001430511475,1.3040833473205566,1.3040833473205566
280,1.0,0.0015784086426720023,0.0015784086426720023,1e-04,0.36000001430511475,1.3079791069030762,1.3079791069030762
281,1.0,0.0015749000012874603,0.0015749000012874603,1e-04,0.36000001430511475,1.3116780519485474,1.3116780519485474
282,1.0,0.0015721821691840887,0.0015721821691840887,1e-04,0.36000001430511475,1.3154622316360474,1.3154622316360474
283,1.0,0.0015687475679442286,0.0015687475679442286,1e-04,0.36000001430511475,1.3193559646606445,1.3193559646606445
284,1.0,0.0015654881717637181,0.0015654881717637181,1e-04,0.36000001430511475,1.3232020139694214,1.3232020139694214
285,1.0,0.0015626056119799614,0.0015626056119799614,1e-04,0.36000001430511475,1.3264079093933105,1.3264079093933105
286,1.0,0.0015593363204970956,0.0015593363204970956,1e-04,0.36000001430511475,1.3296774625778198,1.3296774625778198
287,1.0,0.0015566230285912752,0.0015566230285912752,1e-04,0.36000001430511475,1.33329439163208,1.33329439163208
288,1.0,0.0015536603750661016,0.0015536603750661016,1e-04,0.36000001430511475,1.3366005420684814,1.3366005420684814
289,1.0,0.001550512039102614,0.001550512039102614,1e-04,0.36000001430511475,1.3402886390686035,1.3402886390686035
290,1.0,0.0015471698716282845,0.0015471698716282845,1e-04,0.36000001430511475,1.343767523765564,1.343767523765564
291,1.0,0.0015440605347976089,0.0015440605347976089,1e-04,0.36000001430511475,1.3472328186035156,1.3472328186035156
292,1.0,0.001540654106065631,0.001540654106065631,1e-04,0.36000001430511475,1.3509902954101562,1.3509902954101562
293,1.0,0.0015379085671156645,0.0015379085671156645,1e-04,0.36000001430511475,1.3543901443481445,1.3543901443481445
294,1.0,0.0015344825806096196,0.0015344825806096196,1e-04,0.36000001430511475,1.3574895858764648,1.3574895858764648
295,1.0,0.0015318166697397828,0.0015318166697397828,1e-04,0.36000001430511475,1.3606736660003662,1.3606736660003662
296,1.0,0.0015289182774722576,0.0015289182774722576,1e-04,0.36000001430511475,1.3637601137161255,1.3637601137161255
297,1.0,0.0015262116212397814,0.0015262116212397814,1e-04,0.36000001430511475,1.3667925596237183,1.3667925596237183
298,1.0,0.00152283301576972,0.00152283301576972,1e-04,0.36000001430511475,1.369746446609497,1.369746446609497
299,1.0,0.0015196107560768723,0.0015196107560768723,1e-04,0.36000001430511475,1.3724806308746338,1.3724806308746338
300,1.0,0.0015166421653702855,0.0015166421653702855,1e-04,0.36000001430511475,1.375046968460083,1.375046968460083
301,1.0,0.0015136364381760359,0.0015136364381760359,1e-04,0.36000001430511475,1.3780959844589233,1.3780959844589233
302,1.0,0.0015105587663128972,0.0015105587663128972,1e-04,0.36000001430511475,1.3811231851577759,1.3811231851577759
303,1.0,0.001507636159658432,0.001507636159658432,1e-04,0.36000001430511475,1.3836807012557983,1.3836807012557983
304,1.0,0.0015046637272462249,0.0015046637272462249,1e-04,0.36000001430511475,1.3864188194274902,1.3864188194274902
305,1.0,0.0015014047967270017,0.0015014047967270017,1e-04,0.36000001430511475,1.389216661453247,1.389216661453247
306,1.0,0.001497838064096868,0.001497838064096868,1e-04,0.36000001430511475,1.3920369148254395,1.3920369148254395
307,1.0,0.001494569587521255,0.001494569587521255,1e-04,0.36000001430511475,1.3950855731964111,1.3950855731964111
308,1.0,0.0014921454712748528,0.0014921454712748528,1e-04,0.36000001430511475,1.3975518941879272,1.3975518941879272
309,1.0,0.001488514943048358,0.001488514943048358,1e-04,0.36000001430511475,1.399626612663269,1.399626612663269
310,1.0,0.001485439483076334,0.001485439483076334,1e-04,0.36000001430511475,1.4015520811080933,1.4015520811080933
311,1.0,0.0014828556450083852,0.0014828556450083852,1e-04,0.36000001430511475,1.403866171836853,1.403866171836853
312,1.0,0.0014799375785514712,0.0014799375785514712,1e-04,0.36000001430511475,1.4056239128112793,1.4056239128112793
313,1.0,0.001476952456869185,0.001476952456869185,1e-04,0.36000001430511475,1.4071743488311768,1.4071743488311768
314,1.0,0.0014742872444912791,0.0014742872444912791,1e-04,0.36000001430511475,1.409256935119629,1.409256935119629
315,1.0,0.0014716540463268757,0.0014716540463268757,1e-04,0.36000001430511475,1.411309838294983,1.411309838294983
316,1.0,0.001468475442379713,0.001468475442379713,1e-04,0.36000001430511475,1.4129838943481445,1.4129838943481445
317,1.0,0.0014654062688350677,0.0014654062688350677,1e-04,0.36000001430511475,1.4144253730773926,1.4144253730773926
318,1.0,0.0014623809838667512,0.0014623809838667512,1e-04,0.36000001430511475,1.4161028861999512,1.4161028861999512
319,1.0,0.001459323219023645,0.001459323219023645,1e-04,0.36000001430511475,1.4174447059631348,1.4174447059631348
320,1.0,0.0014566024765372276,0.0014566024765372276,1e-04,0.36000001430511475,1.418563723564148,1.418563723564148
321,1.0,0.0014536199159920216,0.0014536199159920216,1e-04,0.36000001430511475,1.4199556112289429,1.4199556112289429
322,1.0,0.0014508162857964635,0.0014508162857964635,1e-04,0.36000001430511475,1.4212005138397217,1.4212005138397217
323,1.0,0.001447812421247363,0.001447812421247363,1e-04,0.36000001430511475,1.4227830171585083,1.4227830171585083
324,1.0,0.0014445296255871654,0.0014445296255871654,1e-04,0.36000001430511475,1.424180269241333,1.424180269241333
325,1.0,0.0014421584783121943,0.0014421584783121943,1e-04,0.36000001430511475,1.425357460975647,1.425357460975647
326,1.0,0.0014391550794243813,0.0014391550794243813,1e-04,0.36000001430511475,1.4259791374206543,1.4259791374206543
327,1.0,0.0014361104695126414,0.0014361104695126414,1e-04,0.36000001430511475,1.42693293094635,1.42693293094635
328,1.0,0.0014330564299598336,0.0014330564299598336,1e-04,0.36000001430511475,1.4272575378417969,1.4272575378417969
329,1.0,0.0014304944779723883,0.0014304944779723883,1e-04,0.36000001430511475,1.428358554840088,1.428358554840088
330,1.0,0.0014275175053626299,0.0014275175053626299,1e-04,0.36000001430511475,1.4291038513183594,1.4291038513183594
331,1.0,0.0014245558995753527,0.0014245558995753527,1e-04,0.36000001430511475,1.4295121431350708,1.4295121431350708
332,1.0,0.0014213660033419728,0.0014213660033419728,1e-04,0.36000001430511475,1.429514765739441,1.429514765739441
333,1.0,0.0014185943873599172,0.0014185943873599172,1e-04,0.36000001430511475,1.4293347597122192,1.4293347597122192
334,1.0,0.0014158731792122126,0.0014158731792122126,1e-04,0.36000001430511475,1.4293479919433594,1.4293479919433594
335,1.0,0.0014133794466033578,0.0014133794466033578,1e-04,0.36000001430511475,1.429816722869873,1.429816722869873
336,1.0,0.0014108041068539023,0.0014108041068539023,1e-04,0.36000001430511475,1.430121898651123,1.430121898651123
337,1.0,0.0014079813845455647,0.0014079813845455647,1e-04,0.36000001430511475,1.4300055503845215,1.4300055503845215
338,1.0,0.0014051139587536454,0.0014051139587536454,1e-04,0.36000001430511475,1.4299758672714233,1.4299758672714233
339,1.0,0.001401869929395616,0.001401869929395616,1e-04,0.36000001430511475,1.4299607276916504,1.4299607276916504
340,1.0,0.0013993281172588468,0.0013993281172588468,1e-04,0.36000001430511475,1.4291679859161377,1.4291679859161377
341,1.0,0.0013966197147965431,0.0013966197147965431,1e-04,0.36000001430511475,1.4284205436706543,1.4284205436706543
342,1.0,0.0013935065362602472,0.0013935065362602472,1e-04,0.36000001430511475,1.4274712800979614,1.4274712800979614
343,1.0,0.001390692894347012,0.001390692894347012,1e-04,0.36000001430511475,1.4265234470367432,1.4265234470367432
344,1.0,0.0013876610901206732,0.0013876610901206732,1e-04,0.36000001430511475,1.4254475831985474,1.4254475831985474
345,1.0,0.0013849592069163918,0.0013849592069163918,1e-04,0.36000001430511475,1.4243382215499878,1.4243382215499878
346,1.0,0.0013823353219777346,0.0013823353219777346,1e-04,0.36000001430511475,1.423252820968628,1.423252820968628
347,1.0,0.001380115863867104,0.001380115863867104,1e-04,0.36000001430511475,1.4223333597183228,1.4223333597183228
348,1.0,0.0013775276020169258,0.0013775276020169258,1e-04,0.36000001430511475,1.4210500717163086,1.4210500717163086
349,1.0,0.001374808605760336,0.001374808605760336,1e-04,0.36000001430511475,1.4197803735733032,1.4197803735733032
350,1.0,0.0013720631832256913,0.0013720631832256913,1e-04,0.36000001430511475,1.4184216260910034,1.4184216260910034
351,1.0,0.0013690633932128549,0.0013690633932128549,1e-04,0.36000001430511475,1.416650652885437,1.416650652885437
352,1.0,0.0013664658181369305,0.0013664658181369305,1e-04,0.36000001430511475,1.4146933555603027,1.4146933555603027
353,1.0,0.0013637414667755365,0.0013637414667755365,1e-04,0.36000001430511475,1.4124194383621216,1.4124194383621216
354,1.0,0.0013606628635898232,0.0013606628635898232,1e-04,0.36000001430511475,1.4103307723999023,1.4103307723999023
355,1.0,0.0013581819366663694,0.0013581819366663694,1e-04,0.36000001430511475,1.4081337451934814,1.4081337451934814
356,1.0,0.0013548509450629354,0.0013548509450629354,1e-04,0.36000001430511475,1.4059089422225952,1.4059089422225952
357,1.0,0.001351984916254878,0.001351984916254878,1e-04,0.36000001430511475,1.4035518169403076,1.4035518169403076
358,1.0,0.0013493101578205824,0.0013493101578205824,1e-04,0.36000001430511475,1.4008740186691284,1.4008740186691284
359,1.0,0.0013464040821418166,0.0013464040821418166,1e-04,0.36000001430511475,1.3980402946472168,1.3980402946472168
360,1.0,0.0013436679728329182,0.0013436679728329182,1e-04,0.36000001430511475,1.3949344158172607,1.3949344158172607
361,1.0,0.001341618481092155,0.001341618481092155,1e-04,0.36000001430511475,1.3921005725860596,1.3921005725860596
362,1.0,0.0013388808583840728,0.0013388808583840728,1e-04,0.36000001430511475,1.3887029886245728,1.3887029886245728
363,1.0,0.0013362288009375334,0.0013362288009375334,1e-04,0.36000001430511475,1.384924054145813,1.384924054145813
364,1.0,0.0013336492702364922,0.0013336492702364922,1e-04,0.36000001430511475,1.3814010620117188,1.3814010620117188
365,1.0,0.0013307007029652596,0.0013307007029652596,1e-04,0.36000001430511475,1.377648949623108,1.377648949623108
366,1.0,0.0013280129060149193,0.0013280129060149193,1e-04,0.36000001430511475,1.373938798904419,1.373938798904419
367,1.0,0.0013251410564407706,0.0013251410564407706,1e-04,0.36000001430511475,1.3700562715530396,1.3700562715530396
368,1.0,0.001322054537013173,0.001322054537013173,1e-04,0.36000001430511475,1.3663345575332642,1.3663345575332642
369,1.0,0.001319475588388741,0.001319475588388741,1e-04,0.36000001430511475,1.3632031679153442,1.3632031679153442
370,1.0,0.0013170078163966537,0.0013170078163966537,1e-04,0.36000001430511475,1.359198808670044,1.359198808670044
371,1.0,0.0013141488889232278,0.0013141488889232278,1e-04,0.36000001430511475,1.3551827669143677,1.3551827669143677
372,1.0,0.001311579835601151,0.001311579835601151,1e-04,0.36000001430511475,1.3508248329162598,1.3508248329162598
373,1.0,0.0013089516432955861,0.0013089516432955861,1e-04,0.36000001430511475,1.3466830253601074,1.3466830253601074
374,1.0,0.001306502497754991,0.001306502497754991,1e-04,0.36000001430511475,1.3422473669052124,1.3422473669052124
375,1.0,0.001303889905102551,0.001303889905102551,1e-04,0.36000001430511475,1.3378254175186157,1.3378254175186157
376,1.0,0.0013018931495025754,0.0013018931495025754,1e-04,0.36000001430511475,1.3329914808273315,1.3329914808273315
377,1.0,0.0012991108233109117,0.0012991108233109117,1e-04,0.36000001430511475,1.3286008834838867,1.3286008834838867
378,1.0,0.0012964801862835884,0.0012964801862835884,1e-04,0.36000001430511475,1.323654294013977,1.323654294013977
379,1.0,0.0012937099672853947,0.0012937099672853947,1e-04,0.36000001430511475,1.3181017637252808,1.3181017637252808
380,1.0,0.0012907503405585885,0.0012907503405585885,1e-04,0.36000001430511475,1.3125747442245483,1.3125747442245483
381,1.0,0.0012882574228569865,0.0012882574228569865,1e-04,0.36000001430511475,1.3077149391174316,1.3077149391174316
382,1.0,0.001285769627429545,0.001285769627429545,1e-04,0.36000001430511475,1.3030117750167847,1.3030117750167847
383,1.0,0.0012832446955144405,0.0012832446955144405,1e-04,0.36000001430511475,1.2977224588394165,1.2977224588394165
384,1.0,0.0012807585299015045,0.0012807585299015045,1e-04,0.36000001430511475,1.2926185131072998,1.2926185131072998
385,1.0,0.001278224284760654,0.001278224284760654,1e-04,0.36000001430511475,1.286841630935669,1.286841630935669
386,1.0,0.0012758385855704546,0.0012758385855704546,1e-04,0.36000001430511475,1.2809535264968872,1.2809535264968872
387,1.0,0.0012732730247080326,0.0012732730247080326,1e-04,0.36000001430511475,1.2753818035125732,1.2753818035125732
388,1.0,0.00127053027972579,0.00127053027972579,1e-04,0.36000001430511475,1.2689627408981323,1.2689627408981323
389,1.0,0.0012679215287789702,0.0012679215287789702,1e-04,0.36000001430511475,1.2631466388702393,1.2631466388702393
390,1.0,0.0012654416495934129,0.0012654416495934129,1e-04,0.3700000047683716,1.2573258876800537,1.2573258876800537
391,1.0,0.0012629511766135693,0.0012629511766135693,1e-04,0.3700000047683716,1.2510186433792114,1.2510186433792114
392,1.0,0.0012610818957909942,0.0012610818957909942,1e-04,0.3700000047683716,1.244631290435791,1.244631290435791
393,1.0,0.0012583278585225344,0.0012583278585225344,1e-04,0.3700000047683716,1.2381049394607544,1.2381049394607544
394,1.0,0.001255868235602975,0.001255868235602975,1e-04,0.3700000047683716,1.2316559553146362,1.2316559553146362
395,1.0,0.0012536713620647788,0.0012536713620647788,1e-04,0.3700000047683716,1.2251946926116943,1.2251946926116943
396,1.0,0.001251362613402307,0.001251362613402307,1e-04,0.3700000047683716,1.2183278799057007,1.2183278799057007
397,1.0,0.001248398912139237,0.001248398912139237,1e-04,0.3700000047683716,1.2118836641311646,1.2118836641311646
398,1.0,0.001245644292794168,0.001245644292794168,1e-04,0.3700000047683716,1.2051445245742798,1.2051445245742798
399,1.0,0.0012436171527951956,0.0012436171527951956,1e-04,0.3700000047683716,1.198695421218872,1.198695421218872
400,1.0,0.0012407511239871383,0.0012407511239871383,1e-04,0.3700000047683716,1.1921164989471436,1.1921164989471436
401,1.0,0.0012381960405036807,0.0012381960405036807,1e-04,0.3700000047683716,1.1849905252456665,1.1849905252456665
402,1.0,0.0012359971879050136,0.0012359971879050136,1e-04,0.3700000047683716,1.177849531173706,1.177849531173706
403,1.0,0.0012337485095486045,0.0012337485095486045,1e-04,0.3700000047683716,1.1705737113952637,1.1705737113952637
404,1.0,0.0012311040190979838,0.0012311040190979838,1e-04,0.3700000047683716,1.1639771461486816,1.1639771461486816
405,1.0,0.0012287483550608158,0.0012287483550608158,1e-04,0.3700000047683716,1.1573673486709595,1.1573673486709595
406,1.0,0.0012265979312360287,0.0012265979312360287,1e-04,0.3700000047683716,1.150326132774353,1.150326132774353
407,1.0,0.0012240747455507517,0.0012240747455507517,1e-04,0.3799999952316284,1.143323540687561,1.143323540687561
408,1.0,0.0012220044154673815,0.0012220044154673815,1e-04,0.38999998569488525,1.135780930519104,1.135780930519104
409,1.0,0.001219133147969842,0.001219133147969842,1e-04,0.38999998569488525,1.1283326148986816,1.1283326148986816
410,1.0,0.001216378528624773,0.001216378528624773,1e-04,0.38999998569488525,1.1207109689712524,1.1207109689712524
411,1.0,0.0012142546474933624,0.0012142546474933624,1e-04,0.38999998569488525,1.114210844039917,1.114210844039917
412,1.0,0.0012118974700570107,0.0012118974700570107,1e-04,0.4000000059604645,1.1073275804519653,1.1073275804519653
413,1.0,0.0012098315637558699,0.0012098315637558699,1e-04,0.4000000059604645,1.1000808477401733,1.1000808477401733
414,1.0,0.0012074627447873354,0.0012074627447873354,1e-04,0.4099999964237213,1.092974305152893,1.092974305152893
415,1.0,0.0012048737844452262,0.0012048737844452262,1e-04,0.4099999964237213,1.0858715772628784,1.0858715772628784
416,1.0,0.001202865387313068,0.001202865387313068,1e-04,0.4099999964237213,1.0777236223220825,1.0777236223220825
417,1.0,0.0012000040151178837,0.0012000040151178837,1e-04,0.4099999964237213,1.070217251777649,1.070217251777649
418,1.0,0.001198066514916718,0.001198066514916718,1e-04,0.41999998688697815,1.0630333423614502,1.0630333423614502
419,1.0,0.0011957063106819987,0.0011957063106819987,1e-04,0.41999998688697815,1.055732250213623,1.055732250213623
420,1.0,0.0011932889465242624,0.0011932889465242624,1e-04,0.4300000071525574,1.049396276473999,1.049396276473999
421,1.0,0.001190663781017065,0.001190663781017065,1e-04,0.4399999976158142,1.0422316789627075,1.0422316789627075
422,1.0,0.0011884236009791493,0.0011884236009791493,1e-04,0.46000000834465027,1.0353577136993408,1.0353577136993408
423,1.0,0.0011864417465403676,0.0011864417465403676,1e-04,0.47999998927116394,1.0277974605560303,1.0277974605560303
424,1.0,0.0011840396327897906,0.0011840396327897906,1e-04,0.49000000953674316,1.0202995538711548,1.0202995538711548
425,1.0,0.0011819980572909117,0.0011819980572909117,1e-04,0.5099999904632568,1.0129984617233276,1.0129984617233276
426,1.0,0.001179888960905373,0.001179888960905373,1e-04,0.5199999809265137,1.0058437585830688,1.0058437585830688
427,1.0,0.001177545520476997,0.001177545520476997,1e-04,0.5199999809265137,0.9985278248786926,0.9985278248786926
428,1.0,0.0011752441059798002,0.0011752441059798002,1e-04,0.5400000214576721,0.9911326766014099,0.9911326766014099
429,1.0,0.001172821968793869,0.001172821968793869,1e-04,0.5400000214576721,0.9837556481361389,0.9837556481361389
430,1.0,0.001170522184111178,0.001170522184111178,1e-04,0.550000011920929,0.976696789264679,0.976696789264679
431,1.0,0.0011683900374919176,0.0011683900374919176,1e-04,0.550000011920929,0.9695931077003479,0.9695931077003479
432,1.0,0.0011659300653263927,0.0011659300653263927,1e-04,0.550000011920929,0.9626476764678955,0.9626476764678955
433,1.0,0.0011635019909590483,0.0011635019909590483,1e-04,0.550000011920929,0.9555156230926514,0.9555156230926514
434,1.0,0.0011612159432843328,0.0011612159432843328,1e-04,0.550000011920929,0.9483926296234131,0.9483926296234131
435,1.0,0.001159086124971509,0.001159086124971509,1e-04,0.550000011920929,0.9411311149597168,0.9411311149597168
436,1.0,0.0011568041518330574,0.0011568041518330574,1e-04,0.550000011920929,0.933624267578125,0.933624267578125
437,1.0,0.0011545439483597875,0.0011545439483597875,1e-04,0.550000011920929,0.926756739616394,0.926756739616394
438,1.0,0.0011523765278980136,0.0011523765278980136,1e-04,0.550000011920929,0.9196388125419617,0.9196388125419617
439,1.0,0.0011505289003252983,0.0011505289003252983,1e-04,0.5600000023841858,0.912448525428772,0.912448525428772
440,1.0,0.0011482598492875695,0.0011482598492875695,1e-04,0.5600000023841858,0.9049085378646851,0.9049085378646851
441,1.0,0.0011459668166935444,0.0011459668166935444,1e-04,0.550000011920929,0.8981868624687195,0.8981868624687195
442,1.0,0.0011434742482379079,0.0011434742482379079,1e-04,0.550000011920929,0.8911387920379639,0.8911387920379639
443,1.0,0.0011415078770369291,0.0011415078770369291,1e-04,0.550000011920929,0.884593665599823,0.884593665599823
444,1.0,0.0011390148429200053,0.0011390148429200053,1e-04,0.550000011920929,0.8776196241378784,0.8776196241378784
445,1.0,0.0011372084263712168,0.0011372084263712168,1e-04,0.5600000023841858,0.8706453442573547,0.8706453442573547
446,1.0,0.0011347957188263535,0.0011347957188263535,1e-04,0.5600000023841858,0.8644682168960571,0.8644682168960571
447,1.0,0.001132591045461595,0.001132591045461595,1e-04,0.5600000023841858,0.858307957649231,0.858307957649231
448,1.0,0.0011305066291242838,0.0011305066291242838,1e-04,0.5699999928474426,0.8522748351097107,0.8522748351097107
449,1.0,0.001128264470025897,0.001128264470025897,1e-04,0.5899999737739563,0.845700204372406,0.845700204372406
450,1.0,0.0011262203333899379,0.0011262203333899379,1e-04,0.6000000238418579,0.8395247459411621,0.8395247459411621
451,1.0,0.0011243459302932024,0.0011243459302932024,1e-04,0.6100000143051147,0.8333039283752441,0.8333039283752441
452,1.0,0.0011222496395930648,0.0011222496395930648,1e-04,0.6000000238418579,0.8275120258331299,0.8275120258331299
453,1.0,0.001120172906666994,0.001120172906666994,1e-04,0.6200000047683716,0.8219591379165649,0.8219591379165649
454,1.0,0.0011181519366800785,0.0011181519366800785,1e-04,0.6299999952316284,0.8157672882080078,0.8157672882080078
455,1.0,0.0011160196736454964,0.0011160196736454964,1e-04,0.6600000262260437,0.8096545934677124,0.8096545934677124
456,1.0,0.0011138924164697528,0.0011138924164697528,1e-04,0.6800000071525574,0.8031198382377625,0.8031198382377625
457,1.0,0.0011117615504190326,0.0011117615504190326,1e-04,0.6899999976158142,0.7969295382499695,0.7969295382499695
458,1.0,0.0011092867935076356,0.0011092867935076356,1e-04,0.699999988079071,0.7911722660064697,0.7911722660064697
459,1.0,0.0011074710637331009,0.0011074710637331009,1e-04,0.699999988079071,0.7855721116065979,0.7855721116065979
460,1.0,0.0011053186608478427,0.0011053186608478427,1e-04,0.7300000190734863,0.7795960307121277,0.7795960307121277
461,1.0,0.0011031572939828038,0.0011031572939828038,1e-04,0.7300000190734863,0.7739363312721252,0.7739363312721252
462,1.0,0.0011010143207386136,0.0011010143207386136,1e-04,0.7300000190734863,0.7687361240386963,0.7687361240386963
463,1.0,0.0010988879948854446,0.0010988879948854446,1e-04,0.7300000190734863,0.7639822959899902,0.7639822959899902
464,1.0,0.0010967282578349113,0.0010967282578349113,1e-04,0.7300000190734863,0.7586296200752258,0.7586296200752258
465,1.0,0.0010947895934805274,0.0010947895934805274,1e-04,0.7400000095367432,0.7533466219902039,0.7533466219902039
466,1.0,0.0010928359115496278,0.0010928359115496278,1e-04,0.7400000095367432,0.7479473352432251,0.7479473352432251
467,1.0,0.0010907790856435895,0.0010907790856435895,1e-04,0.7400000095367432,0.743040919303894,0.743040919303894
468,1.0,0.0010884663788601756,0.0010884663788601756,1e-04,0.7599999904632568,0.7376894950866699,0.7376894950866699
469,1.0,0.001086541684344411,0.001086541684344411,1e-04,0.7599999904632568,0.7323001027107239,0.7323001027107239
470,1.0,0.0010842251358553767,0.0010842251358553767,1e-04,0.7599999904632568,0.7273834943771362,0.7273834943771362
471,1.0,0.0010822871699929237,0.0010822871699929237,1e-04,0.7599999904632568,0.7228769659996033,0.7228769659996033
472,1.0,0.0010803992627188563,0.0010803992627188563,1e-04,0.7599999904632568,0.7184360027313232,0.7184360027313232
473,1.0,0.0010784476762637496,0.0010784476762637496,1e-04,0.7599999904632568,0.7134988903999329,0.7134988903999329
474,1.0,0.001076560583896935,0.001076560583896935,1e-04,0.7599999904632568,0.7092146873474121,0.7092146873474121
475,1.0,0.001074812258593738,0.001074812258593738,1e-04,0.7599999904632568,0.7048048377037048,0.7048048377037048
476,1.0,0.0010729179484769702,0.0010729179484769702,1e-04,0.7599999904632568,0.7002915143966675,0.7002915143966675
477,1.0,0.0010707323672249913,0.0010707323672249913,1e-04,0.7599999904632568,0.6952130794525146,0.6952130794525146
478,1.0,0.0010684948647394776,0.0010684948647394776,1e-04,0.7599999904632568,0.6909109354019165,0.6909109354019165
479,1.0,0.001066404627636075,0.001066404627636075,1e-04,0.7599999904632568,0.6862351298332214,0.6862351298332214
480,1.0,0.001064260140992701,0.001064260140992701,1e-04,0.7599999904632568,0.6824108362197876,0.6824108362197876
481,1.0,0.0010621797991916537,0.0010621797991916537,1e-04,0.7599999904632568,0.6783444881439209,0.6783444881439209
482,1.0,0.001060298178344965,0.001060298178344965,1e-04,0.7699999809265137,0.6745314598083496,0.6745314598083496
483,1.0,0.0010581855894997716,0.0010581855894997716,1e-04,0.7699999809265137,0.6708025932312012,0.6708025932312012
484,1.0,0.0010559636866673827,0.0010559636866673827,1e-04,0.7699999809265137,0.666826605796814,0.666826605796814
485,1.0,0.0010542860254645348,0.0010542860254645348,1e-04,0.7599999904632568,0.6627671122550964,0.6627671122550964
486,1.0,0.0010522751836106181,0.0010522751836106181,1e-04,0.7599999904632568,0.6590941548347473,0.6590941548347473
487,1.0,0.0010504068341106176,0.0010504068341106176,1e-04,0.7699999809265137,0.6555145382881165,0.6555145382881165
488,1.0,0.0010485303355380893,0.0010485303355380893,1e-04,0.7799999713897705,0.6523350477218628,0.6523350477218628
489,1.0,0.0010465453378856182,0.0010465453378856182,1e-04,0.7799999713897705,0.6487956047058105,0.6487956047058105
490,1.0,0.001044431934133172,0.001044431934133172,1e-04,0.7799999713897705,0.6451165080070496,0.6451165080070496
491,1.0,0.0010424676584079862,0.0010424676584079862,1e-04,0.7799999713897705,0.6416547894477844,0.6416547894477844
492,1.0,0.0010405066423118114,0.0010405066423118114,1e-04,0.7799999713897705,0.6386215090751648,0.6386215090751648
493,1.0,0.001038548070937395,0.001038548070937395,1e-04,0.7799999713897705,0.6355579495429993,0.6355579495429993
494,1.0,0.0010366073111072183,0.0010366073111072183,1e-04,0.7900000214576721,0.6326922178268433,0.6326922178268433
495,1.0,0.0010346495546400547,0.0010346495546400547,1e-04,0.7900000214576721,0.6299391388893127,0.6299391388893127
496,1.0,0.0010328917996957898,0.0010328917996957898,1e-04,0.7900000214576721,0.626786470413208,0.626786470413208
497,1.0,0.0010310750221833587,0.0010310750221833587,1e-04,0.800000011920929,0.6239553093910217,0.6239553093910217
498,1.0,0.0010292661609128118,0.0010292661609128118,1e-04,0.8100000023841858,0.6209880709648132,0.6209880709648132
499,1.0,0.0010268844198435545,0.0010268844198435545,1e-04,0.8100000023841858,0.6179496645927429,0.6179496645927429
500,1.0,0.0010252970969304442,0.0010252970969304442,1e-04,0.8100000023841858,0.6153254508972168,0.6153254508972168
501,1.0,0.0010232888162136078,0.0010232888162136078,1e-04,0.8100000023841858,0.612682580947876,0.612682580947876
502,1.0,0.0010212194174528122,0.0010212194174528122,1e-04,0.8100000023841858,0.6101310849189758,0.6101310849189758
503,1.0,0.0010192476911470294,0.0010192476911470294,1e-04,0.8100000023841858,0.6075392365455627,0.6075392365455627
504,1.0,0.0010175254428759217,0.0010175254428759217,1e-04,0.8100000023841858,0.605059027671814,0.605059027671814
505,1.0,0.0010155177442356944,0.0010155177442356944,1e-04,0.8100000023841858,0.6025855541229248,0.6025855541229248
506,1.0,0.0010137239005416632,0.0010137239005416632,1e-04,0.8100000023841858,0.600002110004425,0.600002110004425
507,1.0,0.0010118179488927126,0.0010118179488927126,1e-04,0.8100000023841858,0.5974587798118591,0.5974587798118591
508,1.0,0.001009853440336883,0.001009853440336883,1e-04,0.8100000023841858,0.5954440236091614,0.5954440236091614
509,1.0,0.0010079126805067062,0.0010079126805067062,1e-04,0.8100000023841858,0.5935531854629517,0.5935531854629517
510,1.0,0.0010059502674266696,0.0010059502674266696,1e-04,0.8100000023841858,0.5913748741149902,0.5913748741149902
511,1.0,0.0010042154463008046,0.0010042154463008046,1e-04,0.8100000023841858,0.5890758633613586,0.5890758633613586
512,1.0,0.0010024529183283448,0.0010024529183283448,1e-04,0.8100000023841858,0.5870485901832581,0.5870485901832581
513,1.0,0.0010007570963352919,0.0010007570963352919,1e-04,0.8100000023841858,0.5850671529769897,0.5850671529769897
514,1.0,0.0009989074897021055,0.0009989074897021055,1e-04,0.8100000023841858,0.5829687714576721,0.5829687714576721
515,1.0,0.0009970711544156075,0.0009970711544156075,1e-04,0.8100000023841858,0.5809258818626404,0.5809258818626404
516,1.0,0.0009951574029400945,0.0009951574029400945,1e-04,0.8100000023841858,0.5787256360054016,0.5787256360054016
517,1.0,0.0009931609965860844,0.0009931609965860844,1e-04,0.8100000023841858,0.5765446424484253,0.5765446424484253
518,1.0,0.0009913104586303234,0.0009913104586303234,1e-04,0.8100000023841858,0.5742347240447998,0.5742347240447998
519,1.0,0.0009892735397443175,0.0009892735397443175,1e-04,0.8100000023841858,0.5720741748809814,0.5720741748809814
520,1.0,0.0009875398827716708,0.0009875398827716708,1e-04,0.800000011920929,0.5701650381088257,0.5701650381088257
521,1.0,0.0009855395182967186,0.0009855395182967186,1e-04,0.800000011920929,0.5682994723320007,0.5682994723320007
522,1.0,0.0009839911945164204,0.0009839911945164204,1e-04,0.800000011920929,0.5666459798812866,0.5666459798812866
523,1.0,0.0009822215652093291,0.0009822215652093291,1e-04,0.800000011920929,0.5649211406707764,0.5649211406707764
524,1.0,0.0009802603162825108,0.0009802603162825108,1e-04,0.800000011920929,0.5633420944213867,0.5633420944213867
525,1.0,0.0009782203705981374,0.0009782203705981374,1e-04,0.8100000023841858,0.5615705847740173,0.5615705847740173
526,1.0,0.0009765159920789301,0.0009765159920789301,1e-04,0.8100000023841858,0.5595797896385193,0.5595797896385193
527,1.0,0.0009745217394083738,0.0009745217394083738,1e-04,0.8100000023841858,0.5574834942817688,0.5574834942817688
528,1.0,0.0009730198071338236,0.0009730198071338236,1e-04,0.8199999928474426,0.5557349920272827,0.5557349920272827
529,1.0,0.0009712361497804523,0.0009712361497804523,1e-04,0.8100000023841858,0.5538827180862427,0.5538827180862427
530,1.0,0.0009695530752651393,0.0009695530752651393,1e-04,0.8100000023841858,0.5521938800811768,0.5521938800811768
531,1.0,0.0009677360067144036,0.0009677360067144036,1e-04,0.8100000023841858,0.5504351854324341,0.5504351854324341
532,1.0,0.0009657879709266126,0.0009657879709266126,1e-04,0.8100000023841858,0.5488048791885376,0.5488048791885376
533,1.0,0.0009639683412387967,0.0009639683412387967,1e-04,0.8100000023841858,0.5472887754440308,0.5472887754440308
534,1.0,0.0009622416109777987,0.0009622416109777987,1e-04,0.8199999928474426,0.5457915663719177,0.5457915663719177
535,1.0,0.0009607606916688383,0.0009607606916688383,1e-04,0.8199999928474426,0.543911337852478,0.543911337852478
536,1.0,0.0009587579988874495,0.0009587579988874495,1e-04,0.8199999928474426,0.5421240329742432,0.5421240329742432
537,1.0,0.0009571684640832245,0.0009571684640832245,1e-04,0.8199999928474426,0.5407279133796692,0.5407279133796692
538,1.0,0.0009552892879582942,0.0009552892879582942,1e-04,0.8299999833106995,0.53926682472229,0.53926682472229
539,1.0,0.0009535395074635744,0.0009535395074635744,1e-04,0.8299999833106995,0.5380321145057678,0.5380321145057678
540,1.0,0.0009518768056295812,0.0009518768056295812,1e-04,0.8299999833106995,0.5368349552154541,0.5368349552154541
541,1.0,0.0009500603191554546,0.0009500603191554546,1e-04,0.8299999833106995,0.5353779792785645,0.5353779792785645
542,1.0,0.0009484668262302876,0.0009484668262302876,1e-04,0.8299999833106995,0.5339715480804443,0.5339715480804443
543,1.0,0.000946657732129097,0.000946657732129097,1e-04,0.8399999737739563,0.5325432419776917,0.5325432419776917
544,1.0,0.0009448951459489763,0.0009448951459489763,1e-04,0.8399999737739563,0.5311530828475952,0.5311530828475952
545,1.0,0.0009431685321033001,0.0009431685321033001,1e-04,0.8399999737739563,0.529982328414917,0.529982328414917
546,1.0,0.0009416413377039135,0.0009416413377039135,1e-04,0.8299999833106995,0.52876216173172,0.52876216173172
547,1.0,0.0009400522685609758,0.0009400522685609758,1e-04,0.8299999833106995,0.5275596976280212,0.5275596976280212
548,1.0,0.000938224489800632,0.000938224489800632,1e-04,0.8299999833106995,0.5264891386032104,0.5264891386032104
549,1.0,0.0009368221508339047,0.0009368221508339047,1e-04,0.8299999833106995,0.5249848365783691,0.5249848365783691
550,1.0,0.0009352787747047842,0.0009352787747047842,1e-04,0.8299999833106995,0.52361661195755,0.52361661195755
551,1.0,0.0009336636867374182,0.0009336636867374182,1e-04,0.8299999833106995,0.5223022103309631,0.5223022103309631
552,1.0,0.0009319036616943777,0.0009319036616943777,1e-04,0.8299999833106995,0.5210784077644348,0.5210784077644348
553,1.0,0.000930243288166821,0.000930243288166821,1e-04,0.8299999833106995,0.5199953317642212,0.5199953317642212
554,1.0,0.0009282825631089509,0.0009282825631089509,1e-04,0.8299999833106995,0.5187497735023499,0.5187497735023499
555,1.0,0.000926596054341644,0.000926596054341644,1e-04,0.8299999833106995,0.5177081823348999,0.5177081823348999
556,1.0,0.0009249283466488123,0.0009249283466488123,1e-04,0.8299999833106995,0.5163939595222473,0.5163939595222473
557,1.0,0.0009230907307937741,0.0009230907307937741,1e-04,0.8299999833106995,0.5152942538261414,0.5152942538261414
558,1.0,0.0009215659811161458,0.0009215659811161458,1e-04,0.8299999833106995,0.5140047669410706,0.5140047669410706
559,1.0,0.000919818936381489,0.000919818936381489,1e-04,0.8299999833106995,0.5127666592597961,0.5127666592597961
560,1.0,0.0009185502422042191,0.0009185502422042191,1e-04,0.8299999833106995,0.5117418766021729,0.5117418766021729
561,1.0,0.000916763674467802,0.000916763674467802,1e-04,0.8299999833106995,0.5107120871543884,0.5107120871543884
562,1.0,0.0009151543490588665,0.0009151543490588665,1e-04,0.8299999833106995,0.5096445679664612,0.5096445679664612
563,1.0,0.000913409807253629,0.000913409807253629,1e-04,0.8299999833106995,0.508557915687561,0.508557915687561
564,1.0,0.0009117858717218041,0.0009117858717218041,1e-04,0.8299999833106995,0.5073841214179993,0.5073841214179993
565,1.0,0.0009101564646698534,0.0009101564646698534,1e-04,0.8299999833106995,0.5062109231948853,0.5062109231948853
566,1.0,0.0009087135549634695,0.0009087135549634695,1e-04,0.8299999833106995,0.5052110552787781,0.5052110552787781
567,1.0,0.000907096138689667,0.000907096138689667,1e-04,0.8299999833106995,0.5041913986206055,0.5041913986206055
568,1.0,0.0009055903647094965,0.0009055903647094965,1e-04,0.8299999833106995,0.5032657384872437,0.5032657384872437
569,1.0,0.0009037678828462958,0.0009037678828462958,1e-04,0.8399999737739563,0.502346396446228,0.502346396446228
570,1.0,0.000901981198694557,0.000901981198694557,1e-04,0.8399999737739563,0.5013540387153625,0.5013540387153625
571,1.0,0.0009003147715702653,0.0009003147715702653,1e-04,0.8399999737739563,0.5001801252365112,0.5001801252365112
572,1.0,0.0008988832705654204,0.0008988832705654204,1e-04,0.8399999737739563,0.4992202818393707,0.4992202818393707
573,1.0,0.0008974550873972476,0.0008974550873972476,1e-04,0.8399999737739563,0.4981553256511688,0.4981553256511688
574,1.0,0.0008957331883721054,0.0008957331883721054,1e-04,0.8399999737739563,0.4970951974391937,0.4970951974391937
575,1.0,0.0008941712439991534,0.0008941712439991534,1e-04,0.8399999737739563,0.49612757563591003,0.49612757563591003
576,1.0,0.0008925145375542343,0.0008925145375542343,1e-04,0.8399999737739563,0.4952171742916107,0.4952171742916107
577,1.0,0.000891079951543361,0.000891079951543361,1e-04,0.8399999737739563,0.4941476583480835,0.4941476583480835
578,1.0,0.0008895527571439743,0.0008895527571439743,1e-04,0.8399999737739563,0.4930773675441742,0.4930773675441742
579,1.0,0.0008877638028934598,0.0008877638028934598,1e-04,0.8399999737739563,0.49220266938209534,0.49220266938209534
580,1.0,0.0008861495298333466,0.0008861495298333466,1e-04,0.8399999737739563,0.4912024438381195,0.4912024438381195
581,1.0,0.0008845068514347076,0.0008845068514347076,1e-04,0.8399999737739563,0.4902760982513428,0.4902760982513428
582,1.0,0.000883011962287128,0.000883011962287128,1e-04,0.8399999737739563,0.48918020725250244,0.48918020725250244
583,1.0,0.000881189713254571,0.000881189713254571,1e-04,0.8399999737739563,0.488231360912323,0.488231360912323
584,1.0,0.0008798670605756342,0.0008798670605756342,1e-04,0.8399999737739563,0.48733288049697876,0.48733288049697876
585,1.0,0.0008784184465184808,0.0008784184465184808,1e-04,0.8399999737739563,0.48637810349464417,0.48637810349464417
586,1.0,0.0008769040578044951,0.0008769040578044951,1e-04,0.8500000238418579,0.48556673526763916,0.48556673526763916
587,1.0,0.0008751246496103704,0.0008751246496103704,1e-04,0.8500000238418579,0.4846327304840088,0.4846327304840088
588,1.0,0.0008737187599763274,0.0008737187599763274,1e-04,0.8500000238418579,0.4836054742336273,0.4836054742336273
589,1.0,0.0008719179895706475,0.0008719179895706475,1e-04,0.8500000238418579,0.482610821723938,0.482610821723938
590,1.0,0.0008704314241185784,0.0008704314241185784,1e-04,0.8600000143051147,0.4816434383392334,0.4816434383392334
591,1.0,0.0008691006223671138,0.0008691006223671138,1e-04,0.8600000143051147,0.4807809889316559,0.4807809889316559
592,1.0,0.0008675016579218209,0.0008675016579218209,1e-04,0.8600000143051147,0.47987034916877747,0.47987034916877747
593,1.0,0.0008658399456180632,0.0008658399456180632,1e-04,0.8600000143051147,0.4789566099643707,0.4789566099643707
594,1.0,0.0008644637418910861,0.0008644637418910861,1e-04,0.8600000143051147,0.47804588079452515,0.47804588079452515
595,1.0,0.0008632757235318422,0.0008632757235318422,1e-04,0.8600000143051147,0.47717002034187317,0.47717002034187317
596,1.0,0.0008616484701633453,0.0008616484701633453,1e-04,0.8600000143051147,0.47641441226005554,0.47641441226005554
597,1.0,0.0008600750006735325,0.0008600750006735325,1e-04,0.8500000238418579,0.47569751739501953,0.47569751739501953
598,1.0,0.0008582204463891685,0.0008582204463891685,1e-04,0.8500000238418579,0.47475430369377136,0.47475430369377136
599,1.0,0.0008567374316044152,0.0008567374316044152,1e-04,0.8500000238418579,0.4738779067993164,0.4738779067993164
600,1.0,0.0008553317165933549,0.0008553317165933549,1e-04,0.8500000238418579,0.473015695810318,0.473015695810318
601,1.0,0.0008538876427337527,0.0008538876427337527,1e-04,0.8500000238418579,0.47216796875,0.47216796875
602,1.0,0.0008524461300112307,0.0008524461300112307,1e-04,0.8500000238418579,0.4714154303073883,0.4714154303073883
603,1.0,0.0008511949563398957,0.0008511949563398957,1e-04,0.8500000238418579,0.4706287384033203,0.4706287384033203
604,1.0,0.0008496399968862534,0.0008496399968862534,1e-04,0.8500000238418579,0.469855397939682,0.469855397939682
605,1.0,0.0008481760160066187,0.0008481760160066187,1e-04,0.8500000238418579,0.4690980911254883,0.4690980911254883
606,1.0,0.0008466900908388197,0.0008466900908388197,1e-04,0.8500000238418579,0.4681614637374878,0.4681614637374878
607,1.0,0.0008448654552921653,0.0008448654552921653,1e-04,0.8500000238418579,0.46737968921661377,0.46737968921661377
608,1.0,0.0008433122420683503,0.0008433122420683503,1e-04,0.8500000238418579,0.466660737991333,0.466660737991333
609,1.0,0.0008420526282861829,0.0008420526282861829,1e-04,0.8500000238418579,0.4657280743122101,0.4657280743122101
610,1.0,0.0008402685052715242,0.0008402685052715242,1e-04,0.8500000238418579,0.46498072147369385,0.46498072147369385
611,1.0,0.000838972395285964,0.000838972395285964,1e-04,0.8500000238418579,0.464257150888443,0.464257150888443
612,1.0,0.0008375200559385121,0.0008375200559385121,1e-04,0.8500000238418579,0.46348243951797485,0.46348243951797485
613,1.0,0.0008363805245608091,0.0008363805245608091,1e-04,0.8500000238418579,0.4626867175102234,0.4626867175102234
614,1.0,0.0008349411655217409,0.0008349411655217409,1e-04,0.8500000238418579,0.46184390783309937,0.46184390783309937
615,1.0,0.0008335664169862866,0.0008335664169862866,1e-04,0.8500000238418579,0.4608338177204132,0.4608338177204132
616,1.0,0.0008318749023601413,0.0008318749023601413,1e-04,0.8500000238418579,0.46014922857284546,0.46014922857284546
617,1.0,0.0008303300128318369,0.0008303300128318369,1e-04,0.8500000238418579,0.4594559371471405,0.4594559371471405
618,1.0,0.0008289552642963827,0.0008289552642963827,1e-04,0.8500000238418579,0.4587157368659973,0.4587157368659973
619,1.0,0.0008275075815618038,0.0008275075815618038,1e-04,0.8500000238418579,0.45799800753593445,0.45799800753593445
620,1.0,0.0008261084440164268,0.0008261084440164268,1e-04,0.8500000238418579,0.4574120044708252,0.4574120044708252
621,1.0,0.0008244941127486527,0.0008244941127486527,1e-04,0.8500000238418579,0.45673760771751404,0.45673760771751404
622,1.0,0.0008230131352320313,0.0008230131352320313,1e-04,0.8500000238418579,0.4558883607387543,0.4558883607387543
623,1.0,0.0008216825081035495,0.0008216825081035495,1e-04,0.8500000238418579,0.4551891088485718,0.4551891088485718
624,1.0,0.0008205195772461593,0.0008205195772461593,1e-04,0.8500000238418579,0.4545252323150635,0.4545252323150635
625,1.0,0.0008191291708499193,0.0008191291708499193,1e-04,0.8500000238418579,0.45376983284950256,0.45376983284950256
626,1.0,0.0008177722920663655,0.0008177722920663655,1e-04,0.8500000238418579,0.4531087875366211,0.4531087875366211
627,1.0,0.0008158284472301602,0.0008158284472301602,1e-04,0.8500000238418579,0.4523751139640808,0.4523751139640808
628,1.0,0.0008143963641487062,0.0008143963641487062,1e-04,0.8500000238418579,0.45168906450271606,0.45168906450271606
629,1.0,0.0008132614311762154,0.0008132614311762154,1e-04,0.8500000238418579,0.45090216398239136,0.45090216398239136
630,1.0,0.0008119519334286451,0.0008119519334286451,1e-04,0.8500000238418579,0.4501848518848419,0.4501848518848419
631,1.0,0.0008105532615445554,0.0008105532615445554,1e-04,0.8500000238418579,0.4494646191596985,0.4494646191596985
632,1.0,0.0008092355565167964,0.0008092355565167964,1e-04,0.8500000238418579,0.44903165102005005,0.44903165102005005
633,1.0,0.0008077345555648208,0.0008077345555648208,1e-04,0.8500000238418579,0.4484987258911133,0.4484987258911133
634,1.0,0.0008064417634159327,0.0008064417634159327,1e-04,0.8500000238418579,0.44797906279563904,0.44797906279563904
635,1.0,0.00080494285793975,0.00080494285793975,1e-04,0.8500000238418579,0.44756409525871277,0.44756409525871277
636,1.0,0.0008035904029384255,0.0008035904029384255,1e-04,0.8500000238418579,0.4467221796512604,0.4467221796512604
637,1.0,0.0008021441171877086,0.0008021441171877086,1e-04,0.8500000238418579,0.44617682695388794,0.44617682695388794
638,1.0,0.0008010132005438209,0.0008010132005438209,1e-04,0.8500000238418579,0.4456317126750946,0.4456317126750946
639,1.0,0.0007995915366336703,0.0007995915366336703,1e-04,0.8500000238418579,0.4449366331100464,0.4449366331100464
640,1.0,0.000798239023424685,0.000798239023424685,1e-04,0.8500000238418579,0.44423362612724304,0.44423362612724304
641,1.0,0.0007968402933329344,0.0007968402933329344,1e-04,0.8500000238418579,0.4435670077800751,0.4435670077800751
642,1.0,0.0007954222965054214,0.0007954222965054214,1e-04,0.8500000238418579,0.4428616464138031,0.4428616464138031
643,1.0,0.0007942187949083745,0.0007942187949083745,1e-04,0.8500000238418579,0.4423563480377197,0.4423563480377197
644,1.0,0.0007927153492346406,0.0007927153492346406,1e-04,0.8500000238418579,0.44175422191619873,0.44175422191619873
645,1.0,0.0007914568996056914,0.0007914568996056914,1e-04,0.8500000238418579,0.44129320979118347,0.44129320979118347
646,1.0,0.000790149497333914,0.000790149497333914,1e-04,0.8500000238418579,0.4408385753631592,0.4408385753631592
647,1.0,0.0007886564126238227,0.0007886564126238227,1e-04,0.8500000238418579,0.440165251493454,0.440165251493454
648,1.0,0.0007873289287090302,0.0007873289287090302,1e-04,0.8500000238418579,0.43970775604248047,0.43970775604248047
649,1.0,0.0007861346239224076,0.0007861346239224076,1e-04,0.8500000238418579,0.43914994597435,0.43914994597435
650,1.0,0.0007848049863241613,0.0007848049863241613,1e-04,0.8500000238418579,0.43845057487487793,0.43845057487487793
651,1.0,0.0007833963609300554,0.0007833963609300554,1e-04,0.8500000238418579,0.4377630949020386,0.4377630949020386
652,1.0,0.00078187370672822,0.00078187370672822,1e-04,0.8500000238418579,0.43699750304222107,0.43699750304222107
653,1.0,0.0007804155466146767,0.0007804155466146767,1e-04,0.8500000238418579,0.4363192319869995,0.4363192319869995
654,1.0,0.0007794820703566074,0.0007794820703566074,1e-04,0.8500000238418579,0.4356726408004761,0.4356726408004761
655,1.0,0.0007781796739436686,0.0007781796739436686,1e-04,0.8500000238418579,0.43517306447029114,0.43517306447029114
656,1.0,0.0007766916533000767,0.0007766916533000767,1e-04,0.8500000238418579,0.4346839487552643,0.4346839487552643
657,1.0,0.0007754654507152736,0.0007754654507152736,1e-04,0.8500000238418579,0.434121698141098,0.434121698141098
658,1.0,0.0007742451853118837,0.0007742451853118837,1e-04,0.8500000238418579,0.43348681926727295,0.43348681926727295
659,1.0,0.0007728163618594408,0.0007728163618594408,1e-04,0.8500000238418579,0.43291544914245605,0.43291544914245605
660,1.0,0.0007713997620157897,0.0007713997620157897,1e-04,0.8600000143051147,0.4321325421333313,0.4321325421333313
661,1.0,0.0007700855494476855,0.0007700855494476855,1e-04,0.8600000143051147,0.4314678907394409,0.4314678907394409
662,1.0,0.0007687305915169418,0.0007687305915169418,1e-04,0.8600000143051147,0.43064889311790466,0.43064889311790466
663,1.0,0.0007672281353734434,0.0007672281353734434,1e-04,0.8600000143051147,0.43022647500038147,0.43022647500038147
664,1.0,0.0007660742267034948,0.0007660742267034948,1e-04,0.8600000143051147,0.42959991097450256,0.42959991097450256
665,1.0,0.0007648501778021455,0.0007648501778021455,1e-04,0.8600000143051147,0.4292454123497009,0.4292454123497009
666,1.0,0.000763511867262423,0.000763511867262423,1e-04,0.8600000143051147,0.42870140075683594,0.42870140075683594
667,1.0,0.0007624299032613635,0.0007624299032613635,1e-04,0.8600000143051147,0.4282323718070984,0.4282323718070984
668,1.0,0.0007613394409418106,0.0007613394409418106,1e-04,0.8600000143051147,0.4275297224521637,0.4275297224521637
669,1.0,0.0007599599193781614,0.0007599599193781614,1e-04,0.8600000143051147,0.42707034945487976,0.42707034945487976
670,1.0,0.0007585596758872271,0.0007585596758872271,1e-04,0.8600000143051147,0.426538348197937,0.426538348197937
671,1.0,0.0007573513430543244,0.0007573513430543244,1e-04,0.8600000143051147,0.4259757697582245,0.4259757697582245
672,1.0,0.0007558938814327121,0.0007558938814327121,1e-04,0.8600000143051147,0.4255436658859253,0.4255436658859253
673,1.0,0.0007547316490672529,0.0007547316490672529,1e-04,0.8600000143051147,0.42502662539482117,0.42502662539482117
674,1.0,0.0007534538744948804,0.0007534538744948804,1e-04,0.8600000143051147,0.4247005879878998,0.4247005879878998
675,1.0,0.0007521788938902318,0.0007521788938902318,1e-04,0.8600000143051147,0.42418816685676575,0.42418816685676575
676,1.0,0.0007511798175983131,0.0007511798175983131,1e-04,0.8600000143051147,0.4237087368965149,0.4237087368965149
677,1.0,0.0007498025079257786,0.0007498025079257786,1e-04,0.8600000143051147,0.4233880937099457,0.4233880937099457
678,1.0,0.0007487249094992876,0.0007487249094992876,1e-04,0.8600000143051147,0.4226952791213989,0.4226952791213989
679,1.0,0.0007473212317563593,0.0007473212317563593,1e-04,0.8600000143051147,0.4222179353237152,0.4222179353237152
680,1.0,0.0007463378715328872,0.0007463378715328872,1e-04,0.8600000143051147,0.42184287309646606,0.42184287309646606
681,1.0,0.0007450415869243443,0.0007450415869243443,1e-04,0.8600000143051147,0.42125508189201355,0.42125508189201355
682,1.0,0.0007435261504724622,0.0007435261504724622,1e-04,0.8600000143051147,0.4209674000740051,0.4209674000740051
683,1.0,0.0007422819617204368,0.0007422819617204368,1e-04,0.8600000143051147,0.4205489456653595,0.4205489456653595
684,1.0,0.0007412436534650624,0.0007412436534650624,1e-04,0.8600000143051147,0.4201850891113281,0.4201850891113281
685,1.0,0.0007401885814033449,0.0007401885814033449,1e-04,0.8600000143051147,0.41976937651634216,0.41976937651634216
686,1.0,0.0007386587676592171,0.0007386587676592171,1e-04,0.8600000143051147,0.4194175601005554,0.4194175601005554
687,1.0,0.0007375727873295546,0.0007375727873295546,1e-04,0.8600000143051147,0.41891902685165405,0.41891902685165405
688,1.0,0.0007363262120634317,0.0007363262120634317,1e-04,0.8600000143051147,0.4184928238391876,0.4184928238391876
689,1.0,0.0007349997758865356,0.0007349997758865356,1e-04,0.8600000143051147,0.418008953332901,0.418008953332901
690,1.0,0.0007337494753301144,0.0007337494753301144,1e-04,0.8600000143051147,0.41759395599365234,0.41759395599365234
691,1.0,0.0007324327016249299,0.0007324327016249299,1e-04,0.8600000143051147,0.4172620475292206,0.4172620475292206
692,1.0,0.0007312159286811948,0.0007312159286811948,1e-04,0.8600000143051147,0.41690266132354736,0.41690266132354736
693,1.0,0.0007299682474695146,0.0007299682474695146,1e-04,0.8600000143051147,0.4167048931121826,0.4167048931121826
694,1.0,0.0007287918706424534,0.0007287918706424534,1e-04,0.8600000143051147,0.4164355993270874,0.4164355993270874
695,1.0,0.0007276595570147038,0.0007276595570147038,1e-04,0.8600000143051147,0.41618025302886963,0.41618025302886963
696,1.0,0.000726442551240325,0.000726442551240325,1e-04,0.8600000143051147,0.415807843208313,0.415807843208313
697,1.0,0.0007253650110214949,0.0007253650110214949,1e-04,0.8600000143051147,0.41534778475761414,0.41534778475761414
698,1.0,0.0007239410770125687,0.0007239410770125687,1e-04,0.8600000143051147,0.41483426094055176,0.41483426094055176
699,1.0,0.0007225372828543186,0.0007225372828543186,1e-04,0.8600000143051147,0.41427627205848694,0.41427627205848694
700,1.0,0.0007214277284219861,0.0007214277284219861,1e-04,0.8700000047683716,0.41395750641822815,0.41395750641822815
701,1.0,0.0007202122360467911,0.0007202122360467911,1e-04,0.8700000047683716,0.41339412331581116,0.41339412331581116
702,1.0,0.0007192630437202752,0.0007192630437202752,1e-04,0.8700000047683716,0.4131697118282318,0.4131697118282318
703,1.0,0.0007180247339420021,0.0007180247339420021,1e-04,0.8700000047683716,0.4125359058380127,0.4125359058380127
704,1.0,0.0007169947493821383,0.0007169947493821383,1e-04,0.8700000047683716,0.4121580123901367,0.4121580123901367
705,1.0,0.0007156362407840788,0.0007156362407840788,1e-04,0.8700000047683716,0.41173720359802246,0.41173720359802246
706,1.0,0.00071428605588153,0.00071428605588153,1e-04,0.8700000047683716,0.4113810658454895,0.4113810658454895
707,1.0,0.0007131893653422594,0.0007131893653422594,1e-04,0.8700000047683716,0.4107806384563446,0.4107806384563446
708,1.0,0.000711996341124177,0.000711996341124177,1e-04,0.8700000047683716,0.41030511260032654,0.41030511260032654
709,1.0,0.000710728345438838,0.000710728345438838,1e-04,0.8700000047683716,0.40988409519195557,0.40988409519195557
710,1.0,0.0007097246707417071,0.0007097246707417071,1e-04,0.8700000047683716,0.4093528687953949,0.4093528687953949
711,1.0,0.0007085506804287434,0.0007085506804287434,1e-04,0.8700000047683716,0.4090438485145569,0.4090438485145569
712,1.0,0.0007072885055094957,0.0007072885055094957,1e-04,0.8700000047683716,0.40855589509010315,0.40855589509010315
713,1.0,0.0007060025818645954,0.0007060025818645954,1e-04,0.8700000047683716,0.4081885814666748,0.4081885814666748
714,1.0,0.0007050119456835091,0.0007050119456835091,1e-04,0.8700000047683716,0.4077824056148529,0.4077824056148529
715,1.0,0.000703922298271209,0.000703922298271209,1e-04,0.8700000047683716,0.4071473777294159,0.4071473777294159
716,1.0,0.0007027613464742899,0.0007027613464742899,1e-04,0.8700000047683716,0.40704986453056335,0.40704986453056335
717,1.0,0.0007015787996351719,0.0007015787996351719,1e-04,0.8700000047683716,0.4068373143672943,0.4068373143672943
718,1.0,0.0007005095249041915,0.0007005095249041915,1e-04,0.8700000047683716,0.4064359664916992,0.4064359664916992
719,1.0,0.0006992760463617742,0.0006992760463617742,1e-04,0.8700000047683716,0.4061889946460724,0.4061889946460724
720,1.0,0.000698078132700175,0.000698078132700175,1e-04,0.8700000047683716,0.40590447187423706,0.40590447187423706
721,1.0,0.0006971482071094215,0.0006971482071094215,1e-04,0.8700000047683716,0.40558144450187683,0.40558144450187683
722,1.0,0.0006958205485716462,0.0006958205485716462,1e-04,0.8700000047683716,0.40535563230514526,0.40535563230514526
723,1.0,0.0006946285720914602,0.0006946285720914602,1e-04,0.8700000047683716,0.4049653112888336,0.4049653112888336
724,1.0,0.000693548412527889,0.000693548412527889,1e-04,0.8700000047683716,0.40454044938087463,0.40454044938087463
725,1.0,0.00069281249307096,0.00069281249307096,1e-04,0.8700000047683716,0.4043581485748291,0.4043581485748291
726,1.0,0.0006915979902260005,0.0006915979902260005,1e-04,0.8700000047683716,0.4042266607284546,0.4042266607284546
727,1.0,0.0006902872701175511,0.0006902872701175511,1e-04,0.8700000047683716,0.4042184054851532,0.4042184054851532
728,1.0,0.000689189531840384,0.000689189531840384,1e-04,0.8700000047683716,0.4037964642047882,0.4037964642047882
729,1.0,0.000687997555360198,0.000687997555360198,1e-04,0.8700000047683716,0.4034421443939209,0.4034421443939209
730,1.0,0.0006868791533634067,0.0006868791533634067,1e-04,0.8700000047683716,0.4029276669025421,0.4029276669025421
731,1.0,0.0006858300184831023,0.0006858300184831023,1e-04,0.8700000047683716,0.40277695655822754,0.40277695655822754
732,1.0,0.0006846464239060879,0.0006846464239060879,1e-04,0.8700000047683716,0.4024551808834076,0.4024551808834076
733,1.0,0.0006837056716904044,0.0006837056716904044,1e-04,0.8700000047683716,0.4024648666381836,0.4024648666381836
734,1.0,0.0006826852913945913,0.0006826852913945913,1e-04,0.8700000047683716,0.40233302116394043,0.40233302116394043
735,1.0,0.0006817006506025791,0.0006817006506025791,1e-04,0.8700000047683716,0.40197643637657166,0.40197643637657166
736,1.0,0.0006805360899306834,0.0006805360899306834,1e-04,0.8700000047683716,0.40216538310050964,0.40216538310050964
737,1.0,0.0006795619265176356,0.0006795619265176356,1e-04,0.8700000047683716,0.4018014073371887,0.4018014073371887
738,1.0,0.0006782689597457647,0.0006782689597457647,1e-04,0.8700000047683716,0.4015516936779022,0.4015516936779022
739,1.0,0.0006770686013624072,0.0006770686013624072,1e-04,0.8700000047683716,0.4014677405357361,0.4014677405357361
740,1.0,0.0006758458912372589,0.0006758458912372589,1e-04,0.8799999952316284,0.40096211433410645,0.40096211433410645
741,1.0,0.0006749396561644971,0.0006749396561644971,1e-04,0.8799999952316284,0.4005562961101532,0.4005562961101532
742,1.0,0.00067380495602265,0.00067380495602265,1e-04,0.8799999952316284,0.40034303069114685,0.40034303069114685
743,1.0,0.0006726760184392333,0.0006726760184392333,1e-04,0.8799999952316284,0.4003358781337738,0.4003358781337738
744,1.0,0.0006717484211549163,0.0006717484211549163,1e-04,0.8799999952316284,0.40037211775779724,0.40037211775779724
745,1.0,0.0006706397398374975,0.0006706397398374975,1e-04,0.8799999952316284,0.40021777153015137,0.40021777153015137
746,1.0,0.000669485772959888,0.000669485772959888,1e-04,0.8799999952316284,0.4000782370567322,0.4000782370567322
747,1.0,0.000668476102873683,0.000668476102873683,1e-04,0.8899999856948853,0.3997846245765686,0.3997846245765686
748,1.0,0.0006673317402601242,0.0006673317402601242,1e-04,0.8899999856948853,0.3996926546096802,0.3996926546096802
749,1.0,0.0006662146188318729,0.0006662146188318729,1e-04,0.8899999856948853,0.39966273307800293,0.39966273307800293
750,1.0,0.0006650284631177783,0.0006650284631177783,1e-04,0.8899999856948853,0.39943575859069824,0.39943575859069824
751,1.0,0.000663954415358603,0.000663954415358603,1e-04,0.8899999856948853,0.39911937713623047,0.39911937713623047
752,1.0,0.000662897014990449,0.000662897014990449,1e-04,0.8899999856948853,0.39887991547584534,0.39887991547584534
753,1.0,0.0006619883934035897,0.0006619883934035897,1e-04,0.8899999856948853,0.39871084690093994,0.39871084690093994
754,1.0,0.0006610522395931184,0.0006610522395931184,1e-04,0.8899999856948853,0.3987616300582886,0.3987616300582886
755,1.0,0.0006600400083698332,0.0006600400083698332,1e-04,0.8899999856948853,0.3986717164516449,0.3986717164516449
756,1.0,0.0006591454730369151,0.0006591454730369151,1e-04,0.8899999856948853,0.3984352946281433,0.3984352946281433
757,1.0,0.0006578892352990806,0.0006578892352990806,1e-04,0.8899999856948853,0.39820778369903564,0.39820778369903564
758,1.0,0.0006569104152731597,0.0006569104152731597,1e-04,0.8899999856948853,0.398049920797348,0.398049920797348
759,1.0,0.0006559280445799232,0.0006559280445799232,1e-04,0.8899999856948853,0.397938996553421,0.397938996553421
760,1.0,0.0006547919474542141,0.0006547919474542141,1e-04,0.8899999856948853,0.3978991210460663,0.3978991210460663
761,1.0,0.0006536808796226978,0.0006536808796226978,1e-04,0.8899999856948853,0.39774495363235474,0.39774495363235474
762,1.0,0.0006523054908029735,0.0006523054908029735,1e-04,0.8899999856948853,0.39769136905670166,0.39769136905670166
763,1.0,0.0006511193350888789,0.0006511193350888789,1e-04,0.8899999856948853,0.39753150939941406,0.39753150939941406
764,1.0,0.0006501083262264729,0.0006501083262264729,1e-04,0.8899999856948853,0.3974291682243347,0.3974291682243347
765,1.0,0.0006490211235359311,0.0006490211235359311,1e-04,0.8899999856948853,0.3973243832588196,0.3973243832588196
766,1.0,0.0006480994634330273,0.0006480994634330273,1e-04,0.8899999856948853,0.39720863103866577,0.39720863103866577
767,1.0,0.0006469503859989345,0.0006469503859989345,1e-04,0.8899999856948853,0.39698922634124756,0.39698922634124756
768,1.0,0.0006459633004851639,0.0006459633004851639,1e-04,0.8899999856948853,0.3969007134437561,0.3969007134437561
769,1.0,0.0006450320943258703,0.0006450320943258703,1e-04,0.8899999856948853,0.3970082998275757,0.3970082998275757
770,1.0,0.0006438890122808516,0.0006438890122808516,1e-04,0.8899999856948853,0.3969132900238037,0.3969132900238037
771,1.0,0.0006429041968658566,0.0006429041968658566,1e-04,0.8899999856948853,0.3969278335571289,0.3969278335571289
772,1.0,0.000641759717836976,0.000641759717836976,1e-04,0.8899999856948853,0.3965821862220764,0.3965821862220764
773,1.0,0.0006407035398297012,0.0006407035398297012,1e-04,0.8899999856948853,0.39661213755607605,0.39661213755607605
774,1.0,0.0006396067910827696,0.0006396067910827696,1e-04,0.8899999856948853,0.39626064896583557,0.39626064896583557
775,1.0,0.0006385623128153384,0.0006385623128153384,1e-04,0.8899999856948853,0.39634209871292114,0.39634209871292114
776,1.0,0.0006373082869686186,0.0006373082869686186,1e-04,0.8899999856948853,0.3960166275501251,0.3960166275501251
777,1.0,0.0006363841821439564,0.0006363841821439564,1e-04,0.8899999856948853,0.3959881663322449,0.3959881663322449
778,1.0,0.0006353456410579383,0.0006353456410579383,1e-04,0.8899999856948853,0.39632371068000793,0.39632371068000793
779,1.0,0.0006342596025206149,0.0006342596025206149,1e-04,0.8999999761581421,0.3960556089878082,0.3960556089878082
780,1.0,0.0006333033670671284,0.0006333033670671284,1e-04,0.8999999761581421,0.3957805335521698,0.3957805335521698
781,1.0,0.0006323996349237859,0.0006323996349237859,1e-04,0.8999999761581421,0.3957199156284332,0.3957199156284332
782,1.0,0.0006314837955869734,0.0006314837955869734,1e-04,0.8999999761581421,0.3960343599319458,0.3960343599319458
783,1.0,0.0006302763358689845,0.0006302763358689845,1e-04,0.8999999761581421,0.3956482708454132,0.3956482708454132
784,1.0,0.0006293366895988584,0.0006293366895988584,1e-04,0.8999999761581421,0.3955141007900238,0.3955141007900238
785,1.0,0.0006283708498813212,0.0006283708498813212,1e-04,0.8999999761581421,0.39561158418655396,0.39561158418655396
786,1.0,0.0006273408071137965,0.0006273408071137965,1e-04,0.8999999761581421,0.3957795202732086,0.3957795202732086
787,1.0,0.0006262785173021257,0.0006262785173021257,1e-04,0.8999999761581421,0.3959606885910034,0.3959606885910034
788,1.0,0.0006254090112634003,0.0006254090112634003,1e-04,0.8999999761581421,0.396084189414978,0.396084189414978
789,1.0,0.0006243754760362208,0.0006243754760362208,1e-04,0.8999999761581421,0.3961695730686188,0.3961695730686188
790,1.0,0.0006231407169252634,0.0006231407169252634,1e-04,0.8999999761581421,0.3962607979774475,0.3962607979774475
791,1.0,0.000621945015154779,0.000621945015154779,1e-04,0.8999999761581421,0.3964238464832306,0.3964238464832306
792,1.0,0.0006208030390553176,0.0006208030390553176,1e-04,0.8999999761581421,0.3961860239505768,0.3961860239505768
793,1.0,0.0006201170035637915,0.0006201170035637915,1e-04,0.8999999761581421,0.3962332606315613,0.3962332606315613
794,1.0,0.0006190535495989025,0.0006190535495989025,1e-04,0.8999999761581421,0.3960185647010803,0.3960185647010803
795,1.0,0.0006180795026011765,0.0006180795026011765,1e-04,0.8999999761581421,0.39604294300079346,0.39604294300079346
796,1.0,0.0006169945118017495,0.0006169945118017495,1e-04,0.8999999761581421,0.3959919810295105,0.3959919810295105
797,1.0,0.0006160716293379664,0.0006160716293379664,1e-04,0.8999999761581421,0.39600545167922974,0.39600545167922974
798,1.0,0.0006150701083242893,0.0006150701083242893,1e-04,0.8999999761581421,0.395839661359787,0.395839661359787
799,1.0,0.0006140660843811929,0.0006140660843811929,1e-04,0.8999999761581421,0.39566463232040405,0.39566463232040405
800,1.0,0.0006131086265668273,0.0006131086265668273,1e-04,0.8999999761581421,0.39574551582336426,0.39574551582336426
801,1.0,0.0006121546612121165,0.0006121546612121165,1e-04,0.8999999761581421,0.3957313597202301,0.3957313597202301
802,1.0,0.0006113020936027169,0.0006113020936027169,1e-04,0.8999999761581421,0.39564770460128784,0.39564770460128784
803,1.0,0.0006100766477175057,0.0006100766477175057,1e-04,0.8999999761581421,0.39561939239501953,0.39561939239501953
804,1.0,0.0006090537644922733,0.0006090537644922733,1e-04,0.8999999761581421,0.3954549729824066,0.3954549729824066
805,1.0,0.0006080830935388803,0.0006080830935388803,1e-04,0.8999999761581421,0.39542704820632935,0.39542704820632935
806,1.0,0.0006069791852496564,0.0006069791852496564,1e-04,0.8999999761581421,0.3953937292098999,0.3953937292098999
807,1.0,0.0006060061859898269,0.0006060061859898269,1e-04,0.8999999761581421,0.3951973617076874,0.3951973617076874
808,1.0,0.0006051786476746202,0.0006051786476746202,1e-04,0.8999999761581421,0.39480361342430115,0.39480361342430115
809,1.0,0.000604387721978128,0.000604387721978128,1e-04,0.8999999761581421,0.3947332799434662,0.3947332799434662
810,1.0,0.0006034087855368853,0.0006034087855368853,1e-04,0.8999999761581421,0.3946130871772766,0.3946130871772766
811,1.0,0.0006022941088303924,0.0006022941088303924,1e-04,0.8999999761581421,0.3944641053676605,0.3944641053676605
812,1.0,0.0006014140672050416,0.0006014140672050416,1e-04,0.8999999761581421,0.3942593038082123,0.3942593038082123
813,1.0,0.0006004946772009134,0.0006004946772009134,1e-04,0.8999999761581421,0.39397862553596497,0.39397862553596497
814,1.0,0.0005994978128001094,0.0005994978128001094,1e-04,0.8999999761581421,0.3940298855304718,0.3940298855304718
815,1.0,0.0005985414027236402,0.0005985414027236402,1e-04,0.8999999761581421,0.39388930797576904,0.39388930797576904
816,1.0,0.0005974516388960183,0.0005974516388960183,1e-04,0.8999999761581421,0.3940742015838623,0.3940742015838623
817,1.0,0.0005966618191450834,0.0005966618191450834,1e-04,0.8999999761581421,0.39398521184921265,0.39398521184921265
818,1.0,0.0005956506938673556,0.0005956506938673556,1e-04,0.8999999761581421,0.39409229159355164,0.39409229159355164
819,1.0,0.0005947956233285367,0.0005947956233285367,1e-04,0.8999999761581421,0.3942195475101471,0.3942195475101471
820,1.0,0.0005938179674558342,0.0005938179674558342,1e-04,0.8999999761581421,0.394062340259552,0.394062340259552
821,1.0,0.0005927948513999581,0.0005927948513999581,1e-04,0.8999999761581421,0.3941592872142792,0.3941592872142792
822,1.0,0.0005917943781241775,0.0005917943781241775,1e-04,0.8999999761581421,0.3941841125488281,0.3941841125488281
823,1.0,0.0005907738232053816,0.0005907738232053816,1e-04,0.8999999761581421,0.39394184947013855,0.39394184947013855
824,1.0,0.0005898008239455521,0.0005898008239455521,1e-04,0.8999999761581421,0.39392128586769104,0.39392128586769104
825,1.0,0.0005890825996175408,0.0005890825996175408,1e-04,0.8999999761581421,0.39372652769088745,0.39372652769088745
826,1.0,0.000588154885917902,0.000588154885917902,1e-04,0.8999999761581421,0.3935093581676483,0.3935093581676483
827,1.0,0.0005870973691344261,0.0005870973691344261,1e-04,0.8999999761581421,0.3935849666595459,0.3935849666595459
828,1.0,0.0005862885154783726,0.0005862885154783726,1e-04,0.8999999761581421,0.39349088072776794,0.39349088072776794
829,1.0,0.0005852487520314753,0.0005852487520314753,1e-04,0.8999999761581421,0.3933057487010956,0.3933057487010956
830,1.0,0.0005843878025189042,0.0005843878025189042,1e-04,0.8999999761581421,0.393155962228775,0.393155962228775
831,1.0,0.000583494605962187,0.000583494605962187,1e-04,0.8999999761581421,0.39315780997276306,0.39315780997276306
832,1.0,0.0005825431435368955,0.0005825431435368955,1e-04,0.8999999761581421,0.39313316345214844,0.39313316345214844
833,1.0,0.0005814832984469831,0.0005814832984469831,1e-04,0.8999999761581421,0.39310383796691895,0.39310383796691895
834,1.0,0.0005806279950775206,0.0005806279950775206,1e-04,0.8999999761581421,0.3928096890449524,0.3928096890449524
835,1.0,0.0005795859033241868,0.0005795859033241868,1e-04,0.8999999761581421,0.39265909790992737,0.39265909790992737
836,1.0,0.0005787675618194044,0.0005787675618194044,1e-04,0.8999999761581421,0.39266106486320496,0.39266106486320496
837,1.0,0.0005778314080089331,0.0005778314080089331,1e-04,0.8999999761581421,0.39277899265289307,0.39277899265289307
838,1.0,0.0005771143478341401,0.0005771143478341401,1e-04,0.8999999761581421,0.3927524983882904,0.3927524983882904
839,1.0,0.0005762390210293233,0.0005762390210293233,1e-04,0.8999999761581421,0.39289408922195435,0.39289408922195435
840,1.0,0.0005752339493483305,0.0005752339493483305,1e-04,0.8999999761581421,0.3926311433315277,0.3926311433315277
841,1.0,0.0005744656664319336,0.0005744656664319336,1e-04,0.8999999761581421,0.39268162846565247,0.39268162846565247
842,1.0,0.0005735725280828774,0.0005735725280828774,1e-04,0.8999999761581421,0.39264512062072754,0.39264512062072754
843,1.0,0.0005724006332457066,0.0005724006332457066,1e-04,0.8999999761581421,0.39257946610450745,0.39257946610450745
844,1.0,0.000571628799661994,0.000571628799661994,1e-04,0.8999999761581421,0.39248988032341003,0.39248988032341003
845,1.0,0.0005709009128622711,0.0005709009128622711,1e-04,0.8999999761581421,0.3922520577907562,0.3922520577907562
846,1.0,0.0005698374006897211,0.0005698374006897211,1e-04,0.8999999761581421,0.39227139949798584,0.39227139949798584
847,1.0,0.0005688596284016967,0.0005688596284016967,1e-04,0.8999999761581421,0.39244094491004944,0.39244094491004944
848,1.0,0.0005679306923411787,0.0005679306923411787,1e-04,0.8999999761581421,0.3925366699695587,0.3925366699695587
849,1.0,0.0005669387755915523,0.0005669387755915523,1e-04,0.8999999761581421,0.39259156584739685,0.39259156584739685
850,1.0,0.0005662026815116405,0.0005662026815116405,1e-04,0.8999999761581421,0.39235764741897583,0.39235764741897583
851,1.0,0.0005653667612932622,0.0005653667612932622,1e-04,0.8999999761581421,0.39232200384140015,0.39232200384140015
852,1.0,0.0005645269411616027,0.0005645269411616027,1e-04,0.8999999761581421,0.39216479659080505,0.39216479659080505
853,1.0,0.0005638228612951934,0.0005638228612951934,1e-04,0.8999999761581421,0.3921779692173004,0.3921779692173004
854,1.0,0.0005628701183013618,0.0005628701183013618,1e-04,0.8999999761581421,0.39208006858825684,0.39208006858825684
855,1.0,0.0005621339660137892,0.0005621339660137892,1e-04,0.8999999761581421,0.3922050893306732,0.3922050893306732
856,1.0,0.000561297929380089,0.000561297929380089,1e-04,0.8999999761581421,0.3924960792064667,0.3924960792064667
857,1.0,0.0005602475139312446,0.0005602475139312446,1e-04,0.8999999761581421,0.3926045298576355,0.3926045298576355
858,1.0,0.0005595685797743499,0.0005595685797743499,1e-04,0.8999999761581421,0.3927401304244995,0.3927401304244995
859,1.0,0.0005586788174696267,0.0005586788174696267,1e-04,0.8999999761581421,0.39271247386932373,0.39271247386932373
860,1.0,0.0005577498814091086,0.0005577498814091086,1e-04,0.8999999761581421,0.39274436235427856,0.39274436235427856
861,1.0,0.0005568255437538028,0.0005568255437538028,1e-04,0.8999999761581421,0.3927652835845947,0.3927652835845947
862,1.0,0.0005559370038099587,0.0005559370038099587,1e-04,0.8999999761581421,0.39261019229888916,0.39261019229888916
863,1.0,0.0005552008515223861,0.0005552008515223861,1e-04,0.8999999761581421,0.3925684690475464,0.3925684690475464
864,1.0,0.0005544148152694106,0.0005544148152694106,1e-04,0.8999999761581421,0.39275455474853516,0.39275455474853516
865,1.0,0.0005536251701414585,0.0005536251701414585,1e-04,0.8999999761581421,0.3927748203277588,0.3927748203277588
866,1.0,0.0005525841843336821,0.0005525841843336821,1e-04,0.8999999761581421,0.39306721091270447,0.39306721091270447
867,1.0,0.0005517303361557424,0.0005517303361557424,1e-04,0.8999999761581421,0.3929845690727234,0.3929845690727234
868,1.0,0.0005509763723239303,0.0005509763723239303,1e-04,0.8999999761581421,0.39292365312576294,0.39292365312576294
869,1.0,0.0005498389364220202,0.0005498389364220202,1e-04,0.8999999761581421,0.3930600881576538,0.3930600881576538
870,1.0,0.00054894108325243,0.00054894108325243,1e-04,0.8999999761581421,0.39311325550079346,0.39311325550079346
871,1.0,0.0005482144188135862,0.0005482144188135862,1e-04,0.8999999761581421,0.3930044174194336,0.3930044174194336
872,1.0,0.0005474723293446004,0.0005474723293446004,1e-04,0.8999999761581421,0.3934418559074402,0.3934418559074402
873,1.0,0.000546757597476244,0.000546757597476244,1e-04,0.8999999761581421,0.39345547556877136,0.39345547556877136
874,1.0,0.0005460537504404783,0.0005460537504404783,1e-04,0.8999999761581421,0.3939823508262634,0.3939823508262634
875,1.0,0.0005450639873743057,0.0005450639873743057,1e-04,0.8999999761581421,0.39414775371551514,0.39414775371551514
876,1.0,0.0005440979730337858,0.0005440979730337858,1e-04,0.8999999761581421,0.39421021938323975,0.39421021938323975
877,1.0,0.000543335743714124,0.000543335743714124,1e-04,0.8999999761581421,0.3945278227329254,0.3945278227329254
878,1.0,0.000542365072760731,0.000542365072760731,1e-04,0.8999999761581421,0.3946855962276459,0.3946855962276459
879,1.0,0.000541730085387826,0.000541730085387826,1e-04,0.8999999761581421,0.3944302499294281,0.3944302499294281
880,1.0,0.0005409058649092913,0.0005409058649092913,1e-04,0.8999999761581421,0.39443522691726685,0.39443522691726685
881,1.0,0.0005401030648499727,0.0005401030648499727,1e-04,0.8999999761581421,0.39443373680114746,0.39443373680114746
882,1.0,0.0005392085877247155,0.0005392085877247155,1e-04,0.8999999761581421,0.394519567489624,0.394519567489624
883,1.0,0.0005384071264415979,0.0005384071264415979,1e-04,0.8999999761581421,0.394825279712677,0.394825279712677
884,1.0,0.0005376221379265189,0.0005376221379265189,1e-04,0.8999999761581421,0.3949044346809387,0.3949044346809387
885,1.0,0.0005367753910832107,0.0005367753910832107,1e-04,0.8999999761581421,0.3949713408946991,0.3949713408946991
886,1.0,0.0005360881332308054,0.0005360881332308054,1e-04,0.8999999761581421,0.3951534628868103,0.3951534628868103
887,1.0,0.0005353413289412856,0.0005353413289412856,1e-04,0.8999999761581421,0.39515525102615356,0.39515525102615356
888,1.0,0.0005344957462511957,0.0005344957462511957,1e-04,0.8999999761581421,0.39516231417655945,0.39516231417655945
889,1.0,0.0005336440517567098,0.0005336440517567098,1e-04,0.8999999761581421,0.3949717581272125,0.3949717581272125
890,1.0,0.0005328257102519274,0.0005328257102519274,1e-04,0.8999999761581421,0.3951093256473541,0.3951093256473541
891,1.0,0.0005320371128618717,0.0005320371128618717,1e-04,0.8999999761581421,0.39535996317863464,0.39535996317863464
892,1.0,0.0005312510766088963,0.0005312510766088963,1e-04,0.8999999761581421,0.3956182599067688,0.3956182599067688
893,1.0,0.0005303411744534969,0.0005303411744534969,1e-04,0.8999999761581421,0.3954809308052063,0.3954809308052063
894,1.0,0.0005296276649460196,0.0005296276649460196,1e-04,0.8999999761581421,0.3957042992115021,0.3957042992115021
895,1.0,0.0005287068197503686,0.0005287068197503686,1e-04,0.8999999761581421,0.395660400390625,0.395660400390625
896,1.0,0.0005279682809486985,0.0005279682809486985,1e-04,0.8999999761581421,0.3958609402179718,0.3958609402179718
897,1.0,0.0005272371345199645,0.0005272371345199645,1e-04,0.8999999761581421,0.39582085609436035,0.39582085609436035
898,1.0,0.0005265295621939003,0.0005265295621939003,1e-04,0.8999999761581421,0.39587992429733276,0.39587992429733276
899,1.0,0.0005256957374513149,0.0005256957374513149,1e-04,0.8999999761581421,0.3961450457572937,0.3961450457572937
900,1.0,0.0005250262329354882,0.0005250262329354882,1e-04,0.8999999761581421,0.396140456199646,0.396140456199646
901,1.0,0.0005241211620159447,0.0005241211620159447,1e-04,0.8999999761581421,0.3961440622806549,0.3961440622806549
902,1.0,0.0005233921110630035,0.0005233921110630035,1e-04,0.8999999761581421,0.3958905041217804,0.3958905041217804
903,1.0,0.0005226239445619285,0.0005226239445619285,1e-04,0.8999999761581421,0.3961400091648102,0.3961400091648102
904,1.0,0.0005217305733822286,0.0005217305733822286,1e-04,0.8999999761581421,0.39632493257522583,0.39632493257522583
905,1.0,0.0005208777147345245,0.0005208777147345245,1e-04,0.8999999761581421,0.39611226320266724,0.39611226320266724
906,1.0,0.0005200761370360851,0.0005200761370360851,1e-04,0.8999999761581421,0.3959139883518219,0.3959139883518219
907,1.0,0.0005193328252062201,0.0005193328252062201,1e-04,0.8999999761581421,0.3961586058139801,0.3961586058139801
908,1.0,0.0005185229238122702,0.0005185229238122702,1e-04,0.8999999761581421,0.3962690234184265,0.3962690234184265
909,1.0,0.000517971464432776,0.000517971464432776,1e-04,0.8999999761581421,0.3963758051395416,0.3963758051395416
910,1.0,0.0005170721560716629,0.0005170721560716629,1e-04,0.8999999761581421,0.3965740203857422,0.3965740203857422
911,1.0,0.0005162587622180581,0.0005162587622180581,1e-04,0.8999999761581421,0.39655280113220215,0.39655280113220215
912,1.0,0.0005154989194124937,0.0005154989194124937,1e-04,0.8999999761581421,0.39648425579071045,0.39648425579071045
913,1.0,0.0005147019983269274,0.0005147019983269274,1e-04,0.8999999761581421,0.39668694138526917,0.39668694138526917
914,1.0,0.0005141349975019693,0.0005141349975019693,1e-04,0.8999999761581421,0.3964230716228485,0.3964230716228485
915,1.0,0.0005132905207574368,0.0005132905207574368,1e-04,0.8999999761581421,0.39648890495300293,0.39648890495300293
916,1.0,0.0005126507603563368,0.0005126507603563368,1e-04,0.8999999761581421,0.3963358998298645,0.3963358998298645
917,1.0,0.000511902675498277,0.000511902675498277,1e-04,0.8999999761581421,0.39626285433769226,0.39626285433769226
918,1.0,0.0005112034850753844,0.0005112034850753844,1e-04,0.8999999761581421,0.39654719829559326,0.39654719829559326
919,1.0,0.0005102435243315995,0.0005102435243315995,1e-04,0.8999999761581421,0.396738201379776,0.396738201379776
920,1.0,0.0005095038213767111,0.0005095038213767111,1e-04,0.8999999761581421,0.3968498110771179,0.3968498110771179
921,1.0,0.0005087450263090432,0.0005087450263090432,1e-04,0.8999999761581421,0.3970862925052643,0.3970862925052643
922,1.0,0.0005080101545900106,0.0005080101545900106,1e-04,0.8999999761581421,0.3967750072479248,0.3967750072479248
923,1.0,0.000507325166836381,0.000507325166836381,1e-04,0.8999999761581421,0.396815687417984,0.396815687417984
924,1.0,0.0005065831355750561,0.0005065831355750561,1e-04,0.8999999761581421,0.39699146151542664,0.39699146151542664
925,1.0,0.0005058231763541698,0.0005058231763541698,1e-04,0.8999999761581421,0.3971567153930664,0.3971567153930664
926,1.0,0.0005050250329077244,0.0005050250329077244,1e-04,0.8999999761581421,0.39693892002105713,0.39693892002105713
927,1.0,0.0005044495919719338,0.0005044495919719338,1e-04,0.8999999761581421,0.3971194326877594,0.3971194326877594
928,1.0,0.0005037062801420689,0.0005037062801420689,1e-04,0.8999999761581421,0.3971085250377655,0.3971085250377655
929,1.0,0.0005029868334531784,0.0005029868334531784,1e-04,0.8999999761581421,0.39724209904670715,0.39724209904670715
930,1.0,0.0005021626711823046,0.0005021626711823046,1e-04,0.8999999761581421,0.3974415063858032,0.3974415063858032
931,1.0,0.0005014300113543868,0.0005014300113543868,1e-04,0.8999999761581421,0.39787617325782776,0.39787617325782776
932,1.0,0.0005006963037885725,0.0005006963037885725,1e-04,0.8999999761581421,0.3978300988674164,0.3978300988674164
933,1.0,0.0004999590455554426,0.0004999590455554426,1e-04,0.8999999761581421,0.3976587951183319,0.3976587951183319
934,1.0,0.0004991478053852916,0.0004991478053852916,1e-04,0.8999999761581421,0.3974955677986145,0.3974955677986145
935,1.0,0.0004983294638805091,0.0004983294638805091,1e-04,0.8999999761581421,0.3974522352218628,0.3974522352218628
936,1.0,0.0004976814379915595,0.0004976814379915595,1e-04,0.8999999761581421,0.3975238800048828,0.3975238800048828
937,1.0,0.0004969894071109593,0.0004969894071109593,1e-04,0.8999999761581421,0.3976498544216156,0.3976498544216156
938,1.0,0.000496353255584836,0.000496353255584836,1e-04,0.8999999761581421,0.3974025845527649,0.3974025845527649
939,1.0,0.000495708838570863,0.000495708838570863,1e-04,0.8999999761581421,0.39741089940071106,0.39741089940071106
940,1.0,0.0004948857240378857,0.0004948857240378857,1e-04,0.8999999761581421,0.3976742625236511,0.3976742625236511
941,1.0,0.0004941698862239718,0.0004941698862239718,1e-04,0.8999999761581421,0.3979772925376892,0.3979772925376892
942,1.0,0.0004934730823151767,0.0004934730823151767,1e-04,0.8999999761581421,0.3977842330932617,0.3977842330932617
943,1.0,0.000492772669531405,0.000492772669531405,1e-04,0.8999999761581421,0.397835373878479,0.397835373878479
944,1.0,0.000492077087983489,0.000492077087983489,1e-04,0.8999999761581421,0.39796096086502075,0.39796096086502075
945,1.0,0.0004912264994345605,0.0004912264994345605,1e-04,0.8999999761581421,0.3978060483932495,0.3978060483932495
946,1.0,0.000490547448862344,0.000490547448862344,1e-04,0.8999999761581421,0.39811381697654724,0.39811381697654724
947,1.0,0.0004897756734862924,0.0004897756734862924,1e-04,0.8999999761581421,0.3980939984321594,0.3980939984321594
948,1.0,0.000489020487293601,0.000489020487293601,1e-04,0.8999999761581421,0.39806342124938965,0.39806342124938965
949,1.0,0.0004883093060925603,0.0004883093060925603,1e-04,0.8999999761581421,0.39814403653144836,0.39814403653144836
950,1.0,0.00048769701970741153,0.00048769701970741153,1e-04,0.8999999761581421,0.3982846736907959,0.3982846736907959
951,1.0,0.0004871025448665023,0.0004871025448665023,1e-04,0.8999999761581421,0.3984290659427643,0.3984290659427643
952,1.0,0.00048641051398590207,0.00048641051398590207,1e-04,0.8999999761581421,0.3985690176486969,0.3985690176486969
953,1.0,0.0004857279418502003,0.0004857279418502003,1e-04,0.8999999761581421,0.3985863924026489,0.3985863924026489
954,1.0,0.00048523713485337794,0.00048523713485337794,1e-04,0.8999999761581421,0.39866846799850464,0.39866846799850464
955,1.0,0.00048455825890414417,0.00048455825890414417,1e-04,0.8999999761581421,0.398393452167511,0.398393452167511
956,1.0,0.0004837113665416837,0.0004837113665416837,1e-04,0.8999999761581421,0.3984925448894501,0.3984925448894501
957,1.0,0.0004830550169572234,0.0004830550169572234,1e-04,0.8999999761581421,0.39841288328170776,0.39841288328170776
958,1.0,0.000482350995298475,0.000482350995298475,1e-04,0.8999999761581421,0.3984394967556,0.3984394967556
959,1.0,0.0004815625143237412,0.0004815625143237412,1e-04,0.8999999761581421,0.3983515202999115,0.3983515202999115
960,1.0,0.00048085724120028317,0.00048085724120028317,1e-04,0.8999999761581421,0.3984977602958679,0.3984977602958679
961,1.0,0.00048024850548245013,0.00048024850548245013,1e-04,0.8999999761581421,0.39849454164505005,0.39849454164505005
962,1.0,0.00047949564759619534,0.00047949564759619534,1e-04,0.8999999761581421,0.3986489176750183,0.3986489176750183
963,1.0,0.0004788023652508855,0.0004788023652508855,1e-04,0.8999999761581421,0.3985767066478729,0.3985767066478729
964,1.0,0.00047806507791392505,0.00047806507791392505,1e-04,0.8999999761581421,0.3986321985721588,0.3986321985721588
965,1.0,0.0004774658882524818,0.0004774658882524818,1e-04,0.8999999761581421,0.3984863758087158,0.3984863758087158
966,1.0,0.0004768822400365025,0.0004768822400365025,1e-04,0.8999999761581421,0.398458331823349,0.398458331823349
967,1.0,0.00047607935266569257,0.00047607935266569257,1e-04,0.8999999761581421,0.39854705333709717,0.39854705333709717
968,1.0,0.0004754848778247833,0.0004754848778247833,1e-04,0.8999999761581421,0.3984343707561493,0.3984343707561493
969,1.0,0.00047481301589868963,0.00047481301589868963,1e-04,0.8999999761581421,0.3983253836631775,0.3983253836631775
970,1.0,0.0004742054152302444,0.0004742054152302444,1e-04,0.8999999761581421,0.3982936441898346,0.3982936441898346
971,1.0,0.00047343832557089627,0.00047343832557089627,1e-04,0.8999999761581421,0.3981761038303375,0.3981761038303375
972,1.0,0.0004727939376607537,0.0004727939376607537,1e-04,0.8999999761581421,0.39833489060401917,0.39833489060401917
973,1.0,0.00047204236034303904,0.00047204236034303904,1e-04,0.8999999761581421,0.3987392485141754,0.3987392485141754
974,1.0,0.00047143001575022936,0.00047143001575022936,1e-04,0.8999999761581421,0.3985227644443512,0.3985227644443512
975,1.0,0.00047070218715816736,0.00047070218715816736,1e-04,0.8999999761581421,0.39804282784461975,0.39804282784461975
976,1.0,0.0004700744466390461,0.0004700744466390461,1e-04,0.8999999761581421,0.39809077978134155,0.39809077978134155
977,1.0,0.000469234655611217,0.000469234655611217,1e-04,0.8999999761581421,0.3982435166835785,0.3982435166835785
978,1.0,0.0004685663734562695,0.0004685663734562695,1e-04,0.8999999761581421,0.3980425000190735,0.3980425000190735
979,1.0,0.00046787544852122664,0.00046787544852122664,1e-04,0.8999999761581421,0.397922545671463,0.397922545671463
980,1.0,0.0004672320792451501,0.0004672320792451501,1e-04,0.8999999761581421,0.39792782068252563,0.39792782068252563
981,1.0,0.00046658169594593346,0.00046658169594593346,1e-04,0.8999999761581421,0.397714227437973,0.397714227437973
982,1.0,0.0004659337573684752,0.0004659337573684752,1e-04,0.8999999761581421,0.39767536520957947,0.39767536520957947
983,1.0,0.00046537621528841555,0.00046537621528841555,1e-04,0.8999999761581421,0.3980024456977844,0.3980024456977844
984,1.0,0.0004647306341212243,0.0004647306341212243,1e-04,0.8999999761581421,0.39806243777275085,0.39806243777275085
985,1.0,0.000464112323243171,0.000464112323243171,1e-04,0.8999999761581421,0.3982572555541992,0.3982572555541992
986,1.0,0.0004634381039068103,0.0004634381039068103,1e-04,0.8999999761581421,0.39838945865631104,0.39838945865631104
987,1.0,0.00046286985161714256,0.00046286985161714256,1e-04,0.9100000262260437,0.3984411954879761,0.3984411954879761
988,1.0,0.0004622420237865299,0.0004622420237865299,1e-04,0.9100000262260437,0.3984788954257965,0.3984788954257965
989,1.0,0.0004614498757291585,0.0004614498757291585,1e-04,0.9100000262260437,0.39840754866600037,0.39840754866600037
990,1.0,0.0004607398877851665,0.0004607398877851665,1e-04,0.8999999761581421,0.39826714992523193,0.39826714992523193
991,1.0,0.0004600812098942697,0.0004600812098942697,1e-04,0.8999999761581421,0.39825811982154846,0.39825811982154846
992,1.0,0.0004595427308231592,0.0004595427308231592,1e-04,0.9100000262260437,0.3984575569629669,0.3984575569629669
993,1.0,0.0004588291049003601,0.0004588291049003601,1e-04,0.9100000262260437,0.3982989490032196,0.3982989490032196
994,1.0,0.0004581596585921943,0.0004581596585921943,1e-04,0.9100000262260437,0.39834025502204895,0.39834025502204895
995,1.0,0.0004573580517899245,0.0004573580517899245,1e-04,0.9100000262260437,0.39858725666999817,0.39858725666999817
996,1.0,0.00045668266830034554,0.00045668266830034554,1e-04,0.9100000262260437,0.398717999458313,0.398717999458313
997,1.0,0.00045603225589729846,0.00045603225589729846,1e-04,0.9100000262260437,0.3985688388347626,0.3985688388347626
998,1.0,0.00045548536581918597,0.00045548536581918597,1e-04,0.9100000262260437,0.3985714614391327,0.3985714614391327
999,1.0,0.0004549362638499588,0.0004549362638499588,1e-04,0.9100000262260437,0.39855125546455383,0.39855125546455383
