epoch,accuracy,categorical_crossentropy,loss,lr,val_accuracy,val_categorical_crossentropy,val_loss
0,0.6899999976158142,0.6669477820396423,0.6669477820396423,0.001,0.6399999856948853,0.6901506781578064,0.6901506781578064
1,0.7400000095367432,0.5448474287986755,0.5448474287986755,0.001,0.6399999856948853,0.6883337497711182,0.6883337497711182
2,0.7900000214576721,0.4866354763507843,0.4866354763507843,0.001,0.6399999856948853,0.6867803335189819,0.6867803335189819
3,0.8199999928474426,0.44729548692703247,0.44729548692703247,0.001,0.6399999856948853,0.6858218312263489,0.6858218312263489
4,0.800000011920929,0.4042496383190155,0.4042496383190155,0.001,0.6399999856948853,0.6849262118339539,0.6849262118339539
5,0.8600000143051147,0.3721296191215515,0.3721296191215515,0.001,0.6399999856948853,0.6836556792259216,0.6836556792259216
6,0.8799999952316284,0.3418707251548767,0.3418707251548767,0.001,0.6399999856948853,0.6827917695045471,0.6827917695045471
7,0.8799999952316284,0.3197448253631592,0.3197448253631592,0.001,0.6399999856948853,0.6825250387191772,0.6825250387191772
8,0.8999999761581421,0.2994004487991333,0.2994004487991333,0.001,0.6399999856948853,0.6826937794685364,0.6826937794685364
9,0.9100000262260437,0.28296518325805664,0.28296518325805664,0.001,0.6399999856948853,0.682809054851532,0.682809054851532
10,0.8999999761581421,0.26796942949295044,0.26796942949295044,0.001,0.6399999856948853,0.6829854846000671,0.6829854846000671
11,0.8999999761581421,0.25416767597198486,0.25416767597198486,0.001,0.6399999856948853,0.683579683303833,0.683579683303833
12,0.9100000262260437,0.2407616227865219,0.2407616227865219,0.001,0.6600000262260437,0.6845095157623291,0.6845095157623291
13,0.9300000071525574,0.22780485451221466,0.22780485451221466,0.001,0.7300000190734863,0.6851673722267151,0.6851673722267151
14,0.9399999976158142,0.216263085603714,0.216263085603714,0.001,0.8100000023841858,0.6858975291252136,0.6858975291252136
15,0.949999988079071,0.20660598576068878,0.20660598576068878,0.001,0.8199999928474426,0.6876466274261475,0.6876466274261475
16,0.949999988079071,0.19750376045703888,0.19750376045703888,0.001,0.6700000166893005,0.6889549493789673,0.6889549493789673
17,0.9599999785423279,0.1881028115749359,0.1881028115749359,0.001,0.3799999952316284,0.6912343502044678,0.6912343502044678
18,0.9599999785423279,0.17879095673561096,0.17879095673561096,0.001,0.36000001430511475,0.693844735622406,0.693844735622406
19,0.9700000286102295,0.17030465602874756,0.17030465602874756,0.001,0.36000001430511475,0.6965773701667786,0.6965773701667786
20,0.9700000286102295,0.16222189366817474,0.16222189366817474,0.001,0.36000001430511475,0.6999120116233826,0.6999120116233826
21,0.9700000286102295,0.15421399474143982,0.15421399474143982,0.001,0.36000001430511475,0.7027219533920288,0.7027219533920288
22,0.9700000286102295,0.14738023281097412,0.14738023281097412,0.001,0.36000001430511475,0.707355260848999,0.707355260848999
23,0.949999988079071,0.14343982934951782,0.14343982934951782,0.001,0.36000001430511475,0.7095468044281006,0.7095468044281006
24,0.9800000190734863,0.13824908435344696,0.13824908435344696,0.001,0.36000001430511475,0.7159337401390076,0.7159337401390076
25,0.9599999785423279,0.12996920943260193,0.12996920943260193,0.001,0.36000001430511475,0.7195173501968384,0.7195173501968384
26,0.9700000286102295,0.12174316495656967,0.12174316495656967,0.001,0.36000001430511475,0.7230035662651062,0.7230035662651062
27,0.9900000095367432,0.11997900903224945,0.11997900903224945,0.001,0.36000001430511475,0.7290235161781311,0.7290235161781311
28,0.9700000286102295,0.11388920992612839,0.11388920992612839,0.001,0.36000001430511475,0.7347592115402222,0.7347592115402222
29,0.9700000286102295,0.10735342651605606,0.10735342651605606,0.001,0.36000001430511475,0.7384125590324402,0.7384125590324402
30,0.9900000095367432,0.10147567093372345,0.10147567093372345,0.001,0.36000001430511475,0.7458204030990601,0.7458204030990601
31,0.9800000190734863,0.09518595039844513,0.09518595039844513,0.001,0.36000001430511475,0.7531484365463257,0.7531484365463257
32,0.9800000190734863,0.09066922962665558,0.09066922962665558,0.001,0.36000001430511475,0.7575122714042664,0.7575122714042664
33,0.9900000095367432,0.08691654354333878,0.08691654354333878,0.001,0.36000001430511475,0.7652552127838135,0.7652552127838135
34,0.9800000190734863,0.08464756608009338,0.08464756608009338,0.001,0.36000001430511475,0.7707868218421936,0.7707868218421936
35,0.9900000095367432,0.07649165391921997,0.07649165391921997,0.001,0.36000001430511475,0.7765461206436157,0.7765461206436157
36,0.9900000095367432,0.07033960521221161,0.07033960521221161,0.001,0.36000001430511475,0.7844951748847961,0.7844951748847961
37,1.0,0.06646601110696793,0.06646601110696793,0.001,0.36000001430511475,0.7899008393287659,0.7899008393287659
38,0.9900000095367432,0.0630020722746849,0.0630020722746849,0.001,0.36000001430511475,0.797078013420105,0.797078013420105
39,1.0,0.06302180886268616,0.06302180886268616,0.001,0.36000001430511475,0.8037729859352112,0.8037729859352112
40,1.0,0.05735218524932861,0.05735218524932861,0.001,0.36000001430511475,0.8088332414627075,0.8088332414627075
41,1.0,0.05548512563109398,0.05548512563109398,0.001,0.36000001430511475,0.8194637298583984,0.8194637298583984
42,1.0,0.060070231556892395,0.060070231556892395,0.001,0.36000001430511475,0.8231756091117859,0.8231756091117859
43,1.0,0.05916334316134453,0.05916334316134453,0.001,0.36000001430511475,0.829176664352417,0.829176664352417
44,1.0,0.06604151427745819,0.06604151427745819,0.001,0.36000001430511475,0.8355370163917542,0.8355370163917542
45,0.9900000095367432,0.06318530440330505,0.06318530440330505,0.001,0.36000001430511475,0.832872211933136,0.832872211933136
46,0.9900000095367432,0.05666138604283333,0.05666138604283333,0.001,0.36000001430511475,0.836810290813446,0.836810290813446
47,1.0,0.04832424223423004,0.04832424223423004,0.001,0.36000001430511475,0.8428957462310791,0.8428957462310791
48,1.0,0.048498764634132385,0.048498764634132385,0.001,0.36000001430511475,0.8457019329071045,0.8457019329071045
49,1.0,0.04265645146369934,0.04265645146369934,0.001,0.36000001430511475,0.8467363119125366,0.8467363119125366
50,1.0,0.04319906234741211,0.04319906234741211,0.001,0.36000001430511475,0.8471882343292236,0.8471882343292236
51,1.0,0.035853806883096695,0.035853806883096695,0.001,0.36000001430511475,0.8486183881759644,0.8486183881759644
52,1.0,0.03687799349427223,0.03687799349427223,0.001,0.36000001430511475,0.8512315154075623,0.8512315154075623
53,1.0,0.032730937004089355,0.032730937004089355,0.001,0.36000001430511475,0.8550795912742615,0.8550795912742615
54,1.0,0.029579877853393555,0.029579877853393555,0.001,0.36000001430511475,0.8589149713516235,0.8589149713516235
55,1.0,0.02755579724907875,0.02755579724907875,0.001,0.36000001430511475,0.8624049425125122,0.8624049425125122
56,1.0,0.026310887187719345,0.026310887187719345,0.001,0.36000001430511475,0.8642666339874268,0.8642666339874268
57,1.0,0.023057760670781136,0.023057760670781136,0.001,0.36000001430511475,0.8658052682876587,0.8658052682876587
58,1.0,0.02217826619744301,0.02217826619744301,0.0005,0.36000001430511475,0.868155300617218,0.868155300617218
59,1.0,0.020257752388715744,0.020257752388715744,0.0005,0.36000001430511475,0.8704273700714111,0.8704273700714111
60,1.0,0.019692078232765198,0.019692078232765198,0.0005,0.36000001430511475,0.872336745262146,0.872336745262146
61,1.0,0.018708214163780212,0.018708214163780212,0.0005,0.36000001430511475,0.8740827441215515,0.8740827441215515
62,1.0,0.017818892374634743,0.017818892374634743,0.0005,0.36000001430511475,0.8759443759918213,0.8759443759918213
63,1.0,0.017419110983610153,0.017419110983610153,0.0005,0.36000001430511475,0.8777034878730774,0.8777034878730774
64,1.0,0.01610945537686348,0.01610945537686348,0.0005,0.36000001430511475,0.8789647817611694,0.8789647817611694
65,1.0,0.0157450120896101,0.0157450120896101,0.0005,0.36000001430511475,0.8797575235366821,0.8797575235366821
66,1.0,0.015415982343256474,0.015415982343256474,0.0005,0.36000001430511475,0.8805950880050659,0.8805950880050659
67,1.0,0.014747077599167824,0.014747077599167824,0.0005,0.36000001430511475,0.8819291591644287,0.8819291591644287
68,1.0,0.014282843098044395,0.014282843098044395,0.0005,0.36000001430511475,0.8838176131248474,0.8838176131248474
69,1.0,0.013594215735793114,0.013594215735793114,0.0005,0.36000001430511475,0.8861027359962463,0.8861027359962463
70,1.0,0.013198822736740112,0.013198822736740112,0.0005,0.36000001430511475,0.8883795142173767,0.8883795142173767
71,1.0,0.012973492965102196,0.012973492965102196,0.0005,0.36000001430511475,0.8903748989105225,0.8903748989105225
72,1.0,0.012451636604964733,0.012451636604964733,0.0005,0.36000001430511475,0.8922775387763977,0.8922775387763977
73,1.0,0.012019671499729156,0.012019671499729156,0.0005,0.36000001430511475,0.8943244218826294,0.8943244218826294
74,1.0,0.01167358085513115,0.01167358085513115,0.0005,0.36000001430511475,0.8965570330619812,0.8965570330619812
75,1.0,0.011392075568437576,0.011392075568437576,0.0005,0.36000001430511475,0.8989866375923157,0.8989866375923157
76,1.0,0.011057509109377861,0.011057509109377861,0.0005,0.36000001430511475,0.9012445211410522,0.9012445211410522
77,1.0,0.010654224082827568,0.010654224082827568,0.0005,0.36000001430511475,0.9033252000808716,0.9033252000808716
78,1.0,0.010430204682052135,0.010430204682052135,0.0005,0.36000001430511475,0.9050671458244324,0.9050671458244324
79,1.0,0.010162901133298874,0.010162901133298874,0.0005,0.36000001430511475,0.9068524241447449,0.9068524241447449
80,1.0,0.009948487393558025,0.009948487393558025,0.0005,0.36000001430511475,0.9089029431343079,0.9089029431343079
81,1.0,0.009647580794990063,0.009647580794990063,0.0005,0.36000001430511475,0.9112544059753418,0.9112544059753418
82,1.0,0.009358501061797142,0.009358501061797142,0.0005,0.36000001430511475,0.9136788249015808,0.9136788249015808
83,1.0,0.009211348369717598,0.009211348369717598,0.0005,0.36000001430511475,0.9158529043197632,0.9158529043197632
84,1.0,0.008975677192211151,0.008975677192211151,0.0005,0.36000001430511475,0.9177916049957275,0.9177916049957275
85,1.0,0.008780524134635925,0.008780524134635925,0.0005,0.36000001430511475,0.91966712474823,0.91966712474823
86,1.0,0.008542406372725964,0.008542406372725964,0.0005,0.36000001430511475,0.9215524792671204,0.9215524792671204
87,1.0,0.00837278924882412,0.00837278924882412,0.0005,0.36000001430511475,0.923197329044342,0.923197329044342
88,1.0,0.00820218212902546,0.00820218212902546,0.0005,0.36000001430511475,0.9245463609695435,0.9245463609695435
89,1.0,0.008020250126719475,0.008020250126719475,0.0005,0.36000001430511475,0.9258142113685608,0.9258142113685608
90,1.0,0.007852866314351559,0.007852866314351559,0.0005,0.36000001430511475,0.9270970225334167,0.9270970225334167
91,1.0,0.007684009149670601,0.007684009149670601,0.0005,0.36000001430511475,0.9285905361175537,0.9285905361175537
92,1.0,0.007556729484349489,0.007556729484349489,0.0005,0.36000001430511475,0.9301313161849976,0.9301313161849976
93,1.0,0.007383825723081827,0.007383825723081827,0.0005,0.36000001430511475,0.9316555857658386,0.9316555857658386
94,1.0,0.007254102732986212,0.007254102732986212,0.0005,0.36000001430511475,0.9332460165023804,0.9332460165023804
95,1.0,0.007111043203622103,0.007111043203622103,0.0005,0.36000001430511475,0.9347032308578491,0.9347032308578491
96,1.0,0.0069889710284769535,0.0069889710284769535,0.0005,0.36000001430511475,0.9360480308532715,0.9360480308532715
97,1.0,0.006846888456493616,0.006846888456493616,0.0005,0.36000001430511475,0.9374964833259583,0.9374964833259583
98,1.0,0.006722842343151569,0.006722842343151569,0.0005,0.36000001430511475,0.9390836358070374,0.9390836358070374
99,1.0,0.0066071669571101665,0.0066071669571101665,0.0005,0.36000001430511475,0.940766453742981,0.940766453742981
100,1.0,0.0065002781338989735,0.0065002781338989735,0.0005,0.36000001430511475,0.9424038529396057,0.9424038529396057
101,1.0,0.006384262349456549,0.006384262349456549,0.0005,0.36000001430511475,0.9441011548042297,0.9441011548042297
102,1.0,0.006271190010011196,0.006271190010011196,0.0005,0.36000001430511475,0.9460415840148926,0.9460415840148926
103,1.0,0.006170168519020081,0.006170168519020081,0.0005,0.36000001430511475,0.9481130242347717,0.9481130242347717
104,1.0,0.006074119824916124,0.006074119824916124,0.0005,0.36000001430511475,0.9499762654304504,0.9499762654304504
105,1.0,0.0059773121029138565,0.0059773121029138565,0.0005,0.36000001430511475,0.9515541195869446,0.9515541195869446
106,1.0,0.005876289214938879,0.005876289214938879,0.0005,0.36000001430511475,0.9531718492507935,0.9531718492507935
107,1.0,0.005786578170955181,0.005786578170955181,0.0005,0.36000001430511475,0.9549360871315002,0.9549360871315002
108,1.0,0.005696240812540054,0.005696240812540054,0.00025,0.36000001430511475,0.9565726518630981,0.9565726518630981
109,1.0,0.005653087981045246,0.005653087981045246,0.00025,0.36000001430511475,0.958238959312439,0.958238959312439
110,1.0,0.005606858059763908,0.005606858059763908,0.00025,0.36000001430511475,0.9598013162612915,0.9598013162612915
111,1.0,0.005561427678912878,0.005561427678912878,0.00025,0.36000001430511475,0.9613680243492126,0.9613680243492126
112,1.0,0.0055214036256074905,0.0055214036256074905,0.00025,0.36000001430511475,0.9628614187240601,0.9628614187240601
113,1.0,0.005480491556227207,0.005480491556227207,0.00025,0.36000001430511475,0.9643949866294861,0.9643949866294861
114,1.0,0.005438340362161398,0.005438340362161398,0.00025,0.36000001430511475,0.9659243226051331,0.9659243226051331
115,1.0,0.0053997100330889225,0.0053997100330889225,0.00025,0.36000001430511475,0.9675093293190002,0.9675093293190002
116,1.0,0.005358618684113026,0.005358618684113026,0.00025,0.36000001430511475,0.969051718711853,0.969051718711853
117,1.0,0.005319614894688129,0.005319614894688129,0.00025,0.36000001430511475,0.970655083656311,0.970655083656311
118,1.0,0.005284671671688557,0.005284671671688557,0.00025,0.36000001430511475,0.9723323583602905,0.9723323583602905
119,1.0,0.005245076026767492,0.005245076026767492,0.00025,0.36000001430511475,0.973972499370575,0.973972499370575
120,1.0,0.005210949573665857,0.005210949573665857,0.00025,0.36000001430511475,0.9756248593330383,0.9756248593330383
121,1.0,0.005173282697796822,0.005173282697796822,0.00025,0.36000001430511475,0.9772257208824158,0.9772257208824158
122,1.0,0.005137890577316284,0.005137890577316284,0.00025,0.36000001430511475,0.9788192510604858,0.9788192510604858
123,1.0,0.005103111732751131,0.005103111732751131,0.00025,0.36000001430511475,0.9805119037628174,0.9805119037628174
124,1.0,0.0050656553357839584,0.0050656553357839584,0.00025,0.36000001430511475,0.9822001457214355,0.9822001457214355
125,1.0,0.005032437853515148,0.005032437853515148,0.00025,0.36000001430511475,0.983977735042572,0.983977735042572
126,1.0,0.004997652489691973,0.004997652489691973,0.00025,0.36000001430511475,0.9857927560806274,0.9857927560806274
127,1.0,0.004962456412613392,0.004962456412613392,0.00025,0.36000001430511475,0.9876645803451538,0.9876645803451538
128,1.0,0.004928490146994591,0.004928490146994591,0.00025,0.36000001430511475,0.9893838763237,0.9893838763237
129,1.0,0.004896669182926416,0.004896669182926416,0.00025,0.36000001430511475,0.9911929368972778,0.9911929368972778
130,1.0,0.004865229595452547,0.004865229595452547,0.00025,0.36000001430511475,0.9931362867355347,0.9931362867355347
131,1.0,0.004831807222217321,0.004831807222217321,0.00025,0.36000001430511475,0.995039165019989,0.995039165019989
132,1.0,0.00479996157810092,0.00479996157810092,0.00025,0.36000001430511475,0.9969576001167297,0.9969576001167297
133,1.0,0.004767952486872673,0.004767952486872673,0.00025,0.36000001430511475,0.998862624168396,0.998862624168396
134,1.0,0.004736979492008686,0.004736979492008686,0.00025,0.36000001430511475,1.0007953643798828,1.0007953643798828
135,1.0,0.004705948755145073,0.004705948755145073,0.00025,0.36000001430511475,1.002746343612671,1.002746343612671
136,1.0,0.004674524534493685,0.004674524534493685,0.00025,0.36000001430511475,1.0047049522399902,1.0047049522399902
137,1.0,0.004645011853426695,0.004645011853426695,0.00025,0.36000001430511475,1.0068050622940063,1.0068050622940063
138,1.0,0.004614881705492735,0.004614881705492735,0.00025,0.36000001430511475,1.008986473083496,1.008986473083496
139,1.0,0.004584214184433222,0.004584214184433222,0.00025,0.36000001430511475,1.010984182357788,1.010984182357788
140,1.0,0.004555359482765198,0.004555359482765198,0.00025,0.36000001430511475,1.013013482093811,1.013013482093811
141,1.0,0.004527037963271141,0.004527037963271141,0.00025,0.36000001430511475,1.0152701139450073,1.0152701139450073
142,1.0,0.0044985562562942505,0.0044985562562942505,0.00025,0.36000001430511475,1.0174247026443481,1.0174247026443481
143,1.0,0.004470616113394499,0.004470616113394499,0.00025,0.36000001430511475,1.0195955038070679,1.0195955038070679
144,1.0,0.004441550467163324,0.004441550467163324,0.00025,0.36000001430511475,1.0217387676239014,1.0217387676239014
145,1.0,0.0044134571217000484,0.0044134571217000484,0.00025,0.36000001430511475,1.0238670110702515,1.0238670110702515
146,1.0,0.004385842010378838,0.004385842010378838,0.00025,0.36000001430511475,1.0259941816329956,1.0259941816329956
147,1.0,0.004358815029263496,0.004358815029263496,0.00025,0.36000001430511475,1.0280381441116333,1.0280381441116333
148,1.0,0.004332423210144043,0.004332423210144043,0.00025,0.36000001430511475,1.0301073789596558,1.0301073789596558
149,1.0,0.004307160619646311,0.004307160619646311,0.00025,0.36000001430511475,1.0323817729949951,1.0323817729949951
150,1.0,0.004280166234821081,0.004280166234821081,0.00025,0.36000001430511475,1.0346667766571045,1.0346667766571045
151,1.0,0.004253967199474573,0.004253967199474573,0.00025,0.36000001430511475,1.0366326570510864,1.0366326570510864
152,1.0,0.0042273374274373055,0.0042273374274373055,0.00025,0.36000001430511475,1.038766622543335,1.038766622543335
153,1.0,0.004202693235129118,0.004202693235129118,0.00025,0.36000001430511475,1.0407965183258057,1.0407965183258057
154,1.0,0.0041772895492613316,0.0041772895492613316,0.00025,0.36000001430511475,1.042850136756897,1.042850136756897
155,1.0,0.004152570851147175,0.004152570851147175,0.00025,0.36000001430511475,1.044968605041504,1.044968605041504
156,1.0,0.004127886146306992,0.004127886146306992,0.00025,0.36000001430511475,1.0471596717834473,1.0471596717834473
157,1.0,0.004102106671780348,0.004102106671780348,0.00025,0.36000001430511475,1.0492569208145142,1.0492569208145142
158,1.0,0.004079146310687065,0.004079146310687065,0.000125,0.36000001430511475,1.0515570640563965,1.0515570640563965
159,1.0,0.004067390691488981,0.004067390691488981,0.000125,0.36000001430511475,1.0539047718048096,1.0539047718048096
160,1.0,0.00405528862029314,0.00405528862029314,0.000125,0.36000001430511475,1.0562056303024292,1.0562056303024292
161,1.0,0.004042265936732292,0.004042265936732292,0.000125,0.36000001430511475,1.0586676597595215,1.0586676597595215
162,1.0,0.004031290300190449,0.004031290300190449,0.000125,0.36000001430511475,1.0611495971679688,1.0611495971679688
163,1.0,0.004018950276076794,0.004018950276076794,0.000125,0.36000001430511475,1.0634747743606567,1.0634747743606567
164,1.0,0.004005836322903633,0.004005836322903633,0.000125,0.36000001430511475,1.0658038854599,1.0658038854599
165,1.0,0.003993402235209942,0.003993402235209942,0.000125,0.36000001430511475,1.0682501792907715,1.0682501792907715
166,1.0,0.0039820680394768715,0.0039820680394768715,0.000125,0.36000001430511475,1.0706140995025635,1.0706140995025635
167,1.0,0.003971988335251808,0.003971988335251808,0.000125,0.36000001430511475,1.0731112957000732,1.0731112957000732
168,1.0,0.0039593856781721115,0.0039593856781721115,0.000125,0.36000001430511475,1.0755398273468018,1.0755398273468018
169,1.0,0.003947400953620672,0.003947400953620672,0.000125,0.36000001430511475,1.0779109001159668,1.0779109001159668
170,1.0,0.003935137763619423,0.003935137763619423,0.000125,0.36000001430511475,1.0803418159484863,1.0803418159484863
171,1.0,0.003923757467418909,0.003923757467418909,0.000125,0.36000001430511475,1.0828198194503784,1.0828198194503784
172,1.0,0.003911519888788462,0.003911519888788462,0.000125,0.36000001430511475,1.0851839780807495,1.0851839780807495
173,1.0,0.003900195937603712,0.003900195937603712,0.000125,0.36000001430511475,1.0877010822296143,1.0877010822296143
174,1.0,0.0038889595307409763,0.0038889595307409763,0.000125,0.36000001430511475,1.0901310443878174,1.0901310443878174
175,1.0,0.003877414157614112,0.003877414157614112,0.000125,0.36000001430511475,1.0925507545471191,1.0925507545471191
176,1.0,0.0038664492312818766,0.0038664492312818766,0.000125,0.36000001430511475,1.0950106382369995,1.0950106382369995
177,1.0,0.0038562235422432423,0.0038562235422432423,0.000125,0.36000001430511475,1.0973864793777466,1.0973864793777466
178,1.0,0.0038452688604593277,0.0038452688604593277,0.000125,0.36000001430511475,1.0998849868774414,1.0998849868774414
179,1.0,0.003831687616184354,0.003831687616184354,0.000125,0.36000001430511475,1.1023129224777222,1.1023129224777222
180,1.0,0.00382055900990963,0.00382055900990963,0.000125,0.36000001430511475,1.1045901775360107,1.1045901775360107
181,1.0,0.003809586400166154,0.003809586400166154,0.000125,0.36000001430511475,1.107058048248291,1.107058048248291
182,1.0,0.003798798657953739,0.003798798657953739,0.000125,0.36000001430511475,1.109633445739746,1.109633445739746
183,1.0,0.0037870961241424084,0.0037870961241424084,0.000125,0.36000001430511475,1.1120905876159668,1.1120905876159668
184,1.0,0.0037748771719634533,0.0037748771719634533,0.000125,0.36000001430511475,1.1144511699676514,1.1144511699676514
185,1.0,0.0037643916439265013,0.0037643916439265013,0.000125,0.36000001430511475,1.1169166564941406,1.1169166564941406
186,1.0,0.003754232544451952,0.003754232544451952,0.000125,0.36000001430511475,1.1193104982376099,1.1193104982376099
187,1.0,0.0037427726201713085,0.0037427726201713085,0.000125,0.36000001430511475,1.1217464208602905,1.1217464208602905
188,1.0,0.0037314414512366056,0.0037314414512366056,0.000125,0.36000001430511475,1.1241962909698486,1.1241962909698486
189,1.0,0.0037202544044703245,0.0037202544044703245,0.000125,0.36000001430511475,1.1266796588897705,1.1266796588897705
190,1.0,0.003708944655954838,0.003708944655954838,0.000125,0.36000001430511475,1.1292648315429688,1.1292648315429688
191,1.0,0.003697487758472562,0.003697487758472562,0.000125,0.36000001430511475,1.1317514181137085,1.1317514181137085
192,1.0,0.0036867987364530563,0.0036867987364530563,0.000125,0.36000001430511475,1.134350061416626,1.134350061416626
193,1.0,0.003676194231957197,0.003676194231957197,0.000125,0.36000001430511475,1.136744499206543,1.136744499206543
194,1.0,0.0036654972936958075,0.0036654972936958075,0.000125,0.36000001430511475,1.1392594575881958,1.1392594575881958
195,1.0,0.0036542012821882963,0.0036542012821882963,0.000125,0.36000001430511475,1.1416404247283936,1.1416404247283936
196,1.0,0.0036425460129976273,0.0036425460129976273,0.000125,0.36000001430511475,1.1441975831985474,1.1441975831985474
197,1.0,0.0036323252134025097,0.0036323252134025097,0.000125,0.36000001430511475,1.1467005014419556,1.1467005014419556
198,1.0,0.0036231791600584984,0.0036231791600584984,0.000125,0.36000001430511475,1.149143934249878,1.149143934249878
199,1.0,0.0036125886254012585,0.0036125886254012585,0.000125,0.36000001430511475,1.1515223979949951,1.1515223979949951
200,1.0,0.003601725911721587,0.003601725911721587,0.000125,0.36000001430511475,1.1540464162826538,1.1540464162826538
201,1.0,0.0035902850795537233,0.0035902850795537233,0.000125,0.36000001430511475,1.1566616296768188,1.1566616296768188
202,1.0,0.003579642390832305,0.003579642390832305,0.000125,0.36000001430511475,1.1590914726257324,1.1590914726257324
203,1.0,0.003570736851543188,0.003570736851543188,0.000125,0.36000001430511475,1.1616013050079346,1.1616013050079346
204,1.0,0.0035595407243818045,0.0035595407243818045,0.000125,0.36000001430511475,1.1640651226043701,1.1640651226043701
205,1.0,0.003550059860572219,0.003550059860572219,0.000125,0.36000001430511475,1.1665087938308716,1.1665087938308716
206,1.0,0.003540504490956664,0.003540504490956664,0.000125,0.36000001430511475,1.1689540147781372,1.1689540147781372
207,1.0,0.0035296091809868813,0.0035296091809868813,0.000125,0.36000001430511475,1.171358585357666,1.171358585357666
208,1.0,0.0035184717271476984,0.0035184717271476984,1e-04,0.36000001430511475,1.1738731861114502,1.1738731861114502
209,1.0,0.003510241163894534,0.003510241163894534,1e-04,0.36000001430511475,1.1766068935394287,1.1766068935394287
210,1.0,0.003501499304547906,0.003501499304547906,1e-04,0.36000001430511475,1.1791901588439941,1.1791901588439941
211,1.0,0.0034939527977257967,0.0034939527977257967,1e-04,0.36000001430511475,1.181710958480835,1.181710958480835
212,1.0,0.0034854761324822903,0.0034854761324822903,1e-04,0.36000001430511475,1.1844170093536377,1.1844170093536377
213,1.0,0.00347704766318202,0.00347704766318202,1e-04,0.36000001430511475,1.187089443206787,1.187089443206787
214,1.0,0.0034691160544753075,0.0034691160544753075,1e-04,0.36000001430511475,1.1895506381988525,1.1895506381988525
215,1.0,0.0034606382250785828,0.0034606382250785828,1e-04,0.36000001430511475,1.1921606063842773,1.1921606063842773
216,1.0,0.0034519536420702934,0.0034519536420702934,1e-04,0.36000001430511475,1.1945984363555908,1.1945984363555908
217,1.0,0.0034434394910931587,0.0034434394910931587,1e-04,0.36000001430511475,1.1972697973251343,1.1972697973251343
218,1.0,0.0034352787770330906,0.0034352787770330906,1e-04,0.36000001430511475,1.1998851299285889,1.1998851299285889
219,1.0,0.003428599564358592,0.003428599564358592,1e-04,0.36000001430511475,1.2021604776382446,1.2021604776382446
220,1.0,0.003420777851715684,0.003420777851715684,1e-04,0.36000001430511475,1.2046395540237427,1.2046395540237427
221,1.0,0.003412618301808834,0.003412618301808834,1e-04,0.36000001430511475,1.207211971282959,1.207211971282959
222,1.0,0.003403973765671253,0.003403973765671253,1e-04,0.36000001430511475,1.2096163034439087,1.2096163034439087
223,1.0,0.0033968614879995584,0.0033968614879995584,1e-04,0.36000001430511475,1.2121303081512451,1.2121303081512451
224,1.0,0.003388988319784403,0.003388988319784403,1e-04,0.36000001430511475,1.2145408391952515,1.2145408391952515
225,1.0,0.0033808506559580564,0.0033808506559580564,1e-04,0.36000001430511475,1.2170332670211792,1.2170332670211792
226,1.0,0.0033718934282660484,0.0033718934282660484,1e-04,0.36000001430511475,1.2194463014602661,1.2194463014602661
227,1.0,0.00336467195302248,0.00336467195302248,1e-04,0.36000001430511475,1.2219797372817993,1.2219797372817993
228,1.0,0.0033567757345736027,0.0033567757345736027,1e-04,0.36000001430511475,1.224534034729004,1.224534034729004
229,1.0,0.003348957048729062,0.003348957048729062,1e-04,0.36000001430511475,1.2271043062210083,1.2271043062210083
230,1.0,0.003341278061270714,0.003341278061270714,1e-04,0.36000001430511475,1.229767918586731,1.229767918586731
231,1.0,0.003332200925797224,0.003332200925797224,1e-04,0.36000001430511475,1.2322627305984497,1.2322627305984497
232,1.0,0.0033245000522583723,0.0033245000522583723,1e-04,0.36000001430511475,1.234675407409668,1.234675407409668
233,1.0,0.003316937480121851,0.003316937480121851,1e-04,0.36000001430511475,1.2370316982269287,1.2370316982269287
234,1.0,0.003308956976979971,0.003308956976979971,1e-04,0.36000001430511475,1.239394187927246,1.239394187927246
235,1.0,0.0033010896295309067,0.0033010896295309067,1e-04,0.36000001430511475,1.2419991493225098,1.2419991493225098
236,1.0,0.003292334033176303,0.003292334033176303,1e-04,0.36000001430511475,1.2444255352020264,1.2444255352020264
237,1.0,0.0032846450340002775,0.0032846450340002775,1e-04,0.36000001430511475,1.2468702793121338,1.2468702793121338
238,1.0,0.003276950679719448,0.003276950679719448,1e-04,0.36000001430511475,1.2492526769638062,1.2492526769638062
239,1.0,0.003269716864451766,0.003269716864451766,1e-04,0.36000001430511475,1.2516889572143555,1.2516889572143555
240,1.0,0.0032621619757264853,0.0032621619757264853,1e-04,0.36000001430511475,1.2540932893753052,1.2540932893753052
241,1.0,0.003254929557442665,0.003254929557442665,1e-04,0.36000001430511475,1.2564473152160645,1.2564473152160645
242,1.0,0.003247186541557312,0.003247186541557312,1e-04,0.36000001430511475,1.259030818939209,1.259030818939209
243,1.0,0.0032387287355959415,0.0032387287355959415,1e-04,0.36000001430511475,1.2615032196044922,1.2615032196044922
244,1.0,0.003231544978916645,0.003231544978916645,1e-04,0.36000001430511475,1.263862133026123,1.263862133026123
245,1.0,0.0032237882260233164,0.0032237882260233164,1e-04,0.36000001430511475,1.2661579847335815,1.2661579847335815
246,1.0,0.003217041492462158,0.003217041492462158,1e-04,0.36000001430511475,1.2684248685836792,1.2684248685836792
247,1.0,0.003209063084796071,0.003209063084796071,1e-04,0.36000001430511475,1.2706305980682373,1.2706305980682373
248,1.0,0.0032009908463805914,0.0032009908463805914,1e-04,0.36000001430511475,1.272765040397644,1.272765040397644
249,1.0,0.003194517223164439,0.003194517223164439,1e-04,0.36000001430511475,1.2750743627548218,1.2750743627548218
250,1.0,0.003187023103237152,0.003187023103237152,1e-04,0.36000001430511475,1.2773231267929077,1.2773231267929077
251,1.0,0.0031790020875632763,0.0031790020875632763,1e-04,0.36000001430511475,1.2798030376434326,1.2798030376434326
252,1.0,0.0031712513882666826,0.0031712513882666826,1e-04,0.36000001430511475,1.2820063829421997,1.2820063829421997
253,1.0,0.0031642229296267033,0.0031642229296267033,1e-04,0.36000001430511475,1.284304141998291,1.284304141998291
254,1.0,0.003156007267534733,0.003156007267534733,1e-04,0.36000001430511475,1.2865217924118042,1.2865217924118042
255,1.0,0.003148940857499838,0.003148940857499838,1e-04,0.36000001430511475,1.2884106636047363,1.2884106636047363
256,1.0,0.003141251392662525,0.003141251392662525,1e-04,0.36000001430511475,1.2905555963516235,1.2905555963516235
257,1.0,0.003134367987513542,0.003134367987513542,1e-04,0.36000001430511475,1.2926232814788818,1.2926232814788818
258,1.0,0.003126220777630806,0.003126220777630806,1e-04,0.36000001430511475,1.295054316520691,1.295054316520691
259,1.0,0.003119402565062046,0.003119402565062046,1e-04,0.36000001430511475,1.2973078489303589,1.2973078489303589
260,1.0,0.0031123259104788303,0.0031123259104788303,1e-04,0.36000001430511475,1.299399733543396,1.299399733543396
261,1.0,0.00310481246560812,0.00310481246560812,1e-04,0.36000001430511475,1.3014285564422607,1.3014285564422607
262,1.0,0.003097309498116374,0.003097309498116374,1e-04,0.36000001430511475,1.3033064603805542,1.3033064603805542
263,1.0,0.0030899550765752792,0.0030899550765752792,1e-04,0.36000001430511475,1.3054296970367432,1.3054296970367432
264,1.0,0.0030821803957223892,0.0030821803957223892,1e-04,0.36000001430511475,1.3071680068969727,1.3071680068969727
265,1.0,0.003075221786275506,0.003075221786275506,1e-04,0.36000001430511475,1.3092745542526245,1.3092745542526245
266,1.0,0.0030678159091621637,0.0030678159091621637,1e-04,0.36000001430511475,1.311293363571167,1.311293363571167
267,1.0,0.0030602747574448586,0.0030602747574448586,1e-04,0.36000001430511475,1.312883734703064,1.312883734703064
268,1.0,0.003053339198231697,0.003053339198231697,1e-04,0.36000001430511475,1.314822793006897,1.314822793006897
269,1.0,0.0030466332100331783,0.0030466332100331783,1e-04,0.36000001430511475,1.3167492151260376,1.3167492151260376
270,1.0,0.0030386450234800577,0.0030386450234800577,1e-04,0.36000001430511475,1.318916916847229,1.318916916847229
271,1.0,0.00303195440210402,0.00303195440210402,1e-04,0.36000001430511475,1.3208504915237427,1.3208504915237427
272,1.0,0.0030249920673668385,0.0030249920673668385,1e-04,0.36000001430511475,1.322861671447754,1.322861671447754
273,1.0,0.0030183109920471907,0.0030183109920471907,1e-04,0.36000001430511475,1.3247562646865845,1.3247562646865845
274,1.0,0.0030107172206044197,0.0030107172206044197,1e-04,0.36000001430511475,1.3266454935073853,1.3266454935073853
275,1.0,0.0030037693213671446,0.0030037693213671446,1e-04,0.36000001430511475,1.3283485174179077,1.3283485174179077
276,1.0,0.002996598370373249,0.002996598370373249,1e-04,0.36000001430511475,1.3299150466918945,1.3299150466918945
277,1.0,0.0029893536120653152,0.0029893536120653152,1e-04,0.36000001430511475,1.331578016281128,1.331578016281128
278,1.0,0.0029824795201420784,0.0029824795201420784,1e-04,0.36000001430511475,1.3329893350601196,1.3329893350601196
279,1.0,0.0029755798168480396,0.0029755798168480396,1e-04,0.36000001430511475,1.3350441455841064,1.3350441455841064
280,1.0,0.0029678335413336754,0.0029678335413336754,1e-04,0.36000001430511475,1.3368862867355347,1.3368862867355347
281,1.0,0.0029607561882585287,0.0029607561882585287,1e-04,0.36000001430511475,1.338521122932434,1.338521122932434
282,1.0,0.0029544213321059942,0.0029544213321059942,1e-04,0.36000001430511475,1.3401625156402588,1.3401625156402588
283,1.0,0.0029473919421434402,0.0029473919421434402,1e-04,0.36000001430511475,1.3419466018676758,1.3419466018676758
284,1.0,0.002940000966191292,0.002940000966191292,1e-04,0.36000001430511475,1.343631386756897,1.343631386756897
285,1.0,0.0029328642413020134,0.0029328642413020134,1e-04,0.36000001430511475,1.3453425168991089,1.3453425168991089
286,1.0,0.0029270967934280634,0.0029270967934280634,1e-04,0.36000001430511475,1.3468449115753174,1.3468449115753174
287,1.0,0.002920280210673809,0.002920280210673809,1e-04,0.36000001430511475,1.3482487201690674,1.3482487201690674
288,1.0,0.002913355827331543,0.002913355827331543,1e-04,0.36000001430511475,1.3499231338500977,1.3499231338500977
289,1.0,0.0029072656761854887,0.0029072656761854887,1e-04,0.36000001430511475,1.3514138460159302,1.3514138460159302
290,1.0,0.0029000509530305862,0.0029000509530305862,1e-04,0.36000001430511475,1.3528051376342773,1.3528051376342773
291,1.0,0.00289316289126873,0.00289316289126873,1e-04,0.36000001430511475,1.354252576828003,1.354252576828003
292,1.0,0.0028873609844595194,0.0028873609844595194,1e-04,0.36000001430511475,1.3558872938156128,1.3558872938156128
293,1.0,0.002879261039197445,0.002879261039197445,1e-04,0.36000001430511475,1.3573070764541626,1.3573070764541626
294,1.0,0.002872673561796546,0.002872673561796546,1e-04,0.36000001430511475,1.3587993383407593,1.3587993383407593
295,1.0,0.002866000635549426,0.002866000635549426,1e-04,0.36000001430511475,1.3603460788726807,1.3603460788726807
296,1.0,0.0028589083813130856,0.0028589083813130856,1e-04,0.36000001430511475,1.3616974353790283,1.3616974353790283
297,1.0,0.0028526089154183865,0.0028526089154183865,1e-04,0.36000001430511475,1.3627794981002808,1.3627794981002808
298,1.0,0.0028458223678171635,0.0028458223678171635,1e-04,0.36000001430511475,1.3638529777526855,1.3638529777526855
299,1.0,0.0028386644553393126,0.0028386644553393126,1e-04,0.36000001430511475,1.3653756380081177,1.3653756380081177
300,1.0,0.0028317358810454607,0.0028317358810454607,1e-04,0.36000001430511475,1.3665930032730103,1.3665930032730103
301,1.0,0.002825268777087331,0.002825268777087331,1e-04,0.36000001430511475,1.3676339387893677,1.3676339387893677
302,1.0,0.002819553017616272,0.002819553017616272,1e-04,0.36000001430511475,1.3686376810073853,1.3686376810073853
303,1.0,0.002812987193465233,0.002812987193465233,1e-04,0.36000001430511475,1.3695173263549805,1.3695173263549805
304,1.0,0.0028067671228200197,0.0028067671228200197,1e-04,0.36000001430511475,1.370151162147522,1.370151162147522
305,1.0,0.002799933310598135,0.002799933310598135,1e-04,0.36000001430511475,1.3712315559387207,1.3712315559387207
306,1.0,0.002793120453134179,0.002793120453134179,1e-04,0.36000001430511475,1.3724796772003174,1.3724796772003174
307,1.0,0.0027871024794876575,0.0027871024794876575,1e-04,0.36000001430511475,1.373578667640686,1.373578667640686
308,1.0,0.0027793387416750193,0.0027793387416750193,1e-04,0.36000001430511475,1.3744308948516846,1.3744308948516846
309,1.0,0.0027732676826417446,0.0027732676826417446,1e-04,0.36000001430511475,1.3748077154159546,1.3748077154159546
310,1.0,0.0027666992973536253,0.0027666992973536253,1e-04,0.36000001430511475,1.3756839036941528,1.3756839036941528
311,1.0,0.0027602589689195156,0.0027602589689195156,1e-04,0.36000001430511475,1.376071572303772,1.376071572303772
312,1.0,0.0027539031580090523,0.0027539031580090523,1e-04,0.36000001430511475,1.3763864040374756,1.3763864040374756
313,1.0,0.0027470418717712164,0.0027470418717712164,1e-04,0.36000001430511475,1.3764469623565674,1.3764469623565674
314,1.0,0.0027411102782934904,0.0027411102782934904,1e-04,0.36000001430511475,1.3766599893569946,1.3766599893569946
315,1.0,0.00273493560962379,0.00273493560962379,1e-04,0.36000001430511475,1.3772534132003784,1.3772534132003784
316,1.0,0.0027289169374853373,0.0027289169374853373,1e-04,0.36000001430511475,1.377465844154358,1.377465844154358
317,1.0,0.0027222023345530033,0.0027222023345530033,1e-04,0.36000001430511475,1.3772283792495728,1.3772283792495728
318,1.0,0.0027164260391145945,0.0027164260391145945,1e-04,0.36000001430511475,1.3775324821472168,1.3775324821472168
319,1.0,0.0027094848919659853,0.0027094848919659853,1e-04,0.36000001430511475,1.377415418624878,1.377415418624878
320,1.0,0.0027021837886422873,0.0027021837886422873,1e-04,0.36000001430511475,1.3776462078094482,1.3776462078094482
321,1.0,0.0026968857273459435,0.0026968857273459435,1e-04,0.36000001430511475,1.3776508569717407,1.3776508569717407
322,1.0,0.0026914903428405523,0.0026914903428405523,1e-04,0.36000001430511475,1.3775758743286133,1.3775758743286133
323,1.0,0.0026842341758310795,0.0026842341758310795,1e-04,0.36000001430511475,1.3773202896118164,1.3773202896118164
324,1.0,0.002678693039342761,0.002678693039342761,1e-04,0.36000001430511475,1.3771330118179321,1.3771330118179321
325,1.0,0.0026720210444182158,0.0026720210444182158,1e-04,0.36000001430511475,1.3770183324813843,1.3770183324813843
326,1.0,0.0026654889807105064,0.0026654889807105064,1e-04,0.36000001430511475,1.376869559288025,1.376869559288025
327,1.0,0.0026590225752443075,0.0026590225752443075,1e-04,0.36000001430511475,1.376437783241272,1.376437783241272
328,1.0,0.002652947325259447,0.002652947325259447,1e-04,0.36000001430511475,1.3756626844406128,1.3756626844406128
329,1.0,0.0026476720813661814,0.0026476720813661814,1e-04,0.36000001430511475,1.3749444484710693,1.3749444484710693
330,1.0,0.002641045954078436,0.002641045954078436,1e-04,0.36000001430511475,1.3743548393249512,1.3743548393249512
331,1.0,0.0026350340340286493,0.0026350340340286493,1e-04,0.36000001430511475,1.3734605312347412,1.3734605312347412
332,1.0,0.002629772527143359,0.002629772527143359,1e-04,0.36000001430511475,1.372377634048462,1.372377634048462
333,1.0,0.002623045351356268,0.002623045351356268,1e-04,0.36000001430511475,1.3714194297790527,1.3714194297790527
334,1.0,0.0026176362298429012,0.0026176362298429012,1e-04,0.36000001430511475,1.3707646131515503,1.3707646131515503
335,1.0,0.002610926516354084,0.002610926516354084,1e-04,0.36000001430511475,1.3696626424789429,1.3696626424789429
336,1.0,0.00260553858242929,0.00260553858242929,1e-04,0.36000001430511475,1.3685084581375122,1.3685084581375122
337,1.0,0.002598519902676344,0.002598519902676344,1e-04,0.36000001430511475,1.367721676826477,1.367721676826477
338,1.0,0.00259225070476532,0.00259225070476532,1e-04,0.36000001430511475,1.3670765161514282,1.3670765161514282
339,1.0,0.002586225513368845,0.002586225513368845,1e-04,0.36000001430511475,1.366182804107666,1.366182804107666
340,1.0,0.0025808403734117746,0.0025808403734117746,1e-04,0.36000001430511475,1.3650050163269043,1.3650050163269043
341,1.0,0.002573878737166524,0.002573878737166524,1e-04,0.36000001430511475,1.363420009613037,1.363420009613037
342,1.0,0.002568512922152877,0.002568512922152877,1e-04,0.36000001430511475,1.3614038228988647,1.3614038228988647
343,1.0,0.00256315222941339,0.00256315222941339,1e-04,0.36000001430511475,1.359709620475769,1.359709620475769
344,1.0,0.0025570073630660772,0.0025570073630660772,1e-04,0.36000001430511475,1.3580543994903564,1.3580543994903564
345,1.0,0.002551756566390395,0.002551756566390395,1e-04,0.36000001430511475,1.3566642999649048,1.3566642999649048
346,1.0,0.002544867806136608,0.002544867806136608,1e-04,0.36000001430511475,1.3556451797485352,1.3556451797485352
347,1.0,0.0025392668321728706,0.0025392668321728706,1e-04,0.36000001430511475,1.3543238639831543,1.3543238639831543
348,1.0,0.002532866783440113,0.002532866783440113,1e-04,0.36000001430511475,1.3530093431472778,1.3530093431472778
349,1.0,0.002527077216655016,0.002527077216655016,1e-04,0.36000001430511475,1.3511395454406738,1.3511395454406738
350,1.0,0.0025215933565050364,0.0025215933565050364,1e-04,0.36000001430511475,1.3494064807891846,1.3494064807891846
351,1.0,0.0025153029710054398,0.0025153029710054398,1e-04,0.36000001430511475,1.3471460342407227,1.3471460342407227
352,1.0,0.0025101369246840477,0.0025101369246840477,1e-04,0.36000001430511475,1.345084547996521,1.345084547996521
353,1.0,0.002504372037947178,0.002504372037947178,1e-04,0.36000001430511475,1.3429474830627441,1.3429474830627441
354,1.0,0.002498720772564411,0.002498720772564411,1e-04,0.36000001430511475,1.3408913612365723,1.3408913612365723
355,1.0,0.0024928580969572067,0.0024928580969572067,1e-04,0.36000001430511475,1.3385956287384033,1.3385956287384033
356,1.0,0.0024868135806173086,0.0024868135806173086,1e-04,0.36000001430511475,1.3362597227096558,1.3362597227096558
357,1.0,0.0024810712784528732,0.0024810712784528732,1e-04,0.36000001430511475,1.3343842029571533,1.3343842029571533
358,1.0,0.002475439105182886,0.002475439105182886,1e-04,0.36000001430511475,1.3324191570281982,1.3324191570281982
359,1.0,0.0024690499994903803,0.0024690499994903803,1e-04,0.36000001430511475,1.3308379650115967,1.3308379650115967
360,1.0,0.0024633107241243124,0.0024633107241243124,1e-04,0.36000001430511475,1.3287620544433594,1.3287620544433594
361,1.0,0.002457363298162818,0.002457363298162818,1e-04,0.36000001430511475,1.326013207435608,1.326013207435608
362,1.0,0.0024510901421308517,0.0024510901421308517,1e-04,0.36000001430511475,1.3228671550750732,1.3228671550750732
363,1.0,0.0024456148967146873,0.0024456148967146873,1e-04,0.36000001430511475,1.3198797702789307,1.3198797702789307
364,1.0,0.002440178068354726,0.002440178068354726,1e-04,0.36000001430511475,1.31708562374115,1.31708562374115
365,1.0,0.0024342236574739218,0.0024342236574739218,1e-04,0.36000001430511475,1.3147860765457153,1.3147860765457153
366,1.0,0.002428776118904352,0.002428776118904352,1e-04,0.36000001430511475,1.3116600513458252,1.3116600513458252
367,1.0,0.002423532772809267,0.002423532772809267,1e-04,0.36000001430511475,1.3090901374816895,1.3090901374816895
368,1.0,0.0024177792947739363,0.0024177792947739363,1e-04,0.36000001430511475,1.3065626621246338,1.3065626621246338
369,1.0,0.002412413479760289,0.002412413479760289,1e-04,0.36000001430511475,1.3042675256729126,1.3042675256729126
370,1.0,0.0024074765387922525,0.0024074765387922525,1e-04,0.36000001430511475,1.3020389080047607,1.3020389080047607
371,1.0,0.0024018650874495506,0.0024018650874495506,1e-04,0.36000001430511475,1.2991676330566406,1.2991676330566406
372,1.0,0.002396239433437586,0.002396239433437586,1e-04,0.36000001430511475,1.29603910446167,1.29603910446167
373,1.0,0.0023912678007036448,0.0023912678007036448,1e-04,0.36000001430511475,1.2929950952529907,1.2929950952529907
374,1.0,0.002385675208643079,0.002385675208643079,1e-04,0.36000001430511475,1.2899523973464966,1.2899523973464966
375,1.0,0.0023795897141098976,0.0023795897141098976,1e-04,0.36000001430511475,1.2866898775100708,1.2866898775100708
376,1.0,0.0023743645288050175,0.0023743645288050175,1e-04,0.36000001430511475,1.283959984779358,1.283959984779358
377,1.0,0.002368192421272397,0.002368192421272397,1e-04,0.36000001430511475,1.280979037284851,1.280979037284851
378,1.0,0.002362640108913183,0.002362640108913183,1e-04,0.36000001430511475,1.2778286933898926,1.2778286933898926
379,1.0,0.002357457298785448,0.002357457298785448,1e-04,0.36000001430511475,1.2743778228759766,1.2743778228759766
380,1.0,0.002352325478568673,0.002352325478568673,1e-04,0.36000001430511475,1.271349549293518,1.271349549293518
381,1.0,0.0023466988932341337,0.0023466988932341337,1e-04,0.36000001430511475,1.267680287361145,1.267680287361145
382,1.0,0.0023411838337779045,0.0023411838337779045,1e-04,0.36000001430511475,1.2648049592971802,1.2648049592971802
383,1.0,0.0023359330371022224,0.0023359330371022224,1e-04,0.3700000047683716,1.2617367506027222,1.2617367506027222
384,1.0,0.0023302442859858274,0.0023302442859858274,1e-04,0.3700000047683716,1.2583703994750977,1.2583703994750977
385,1.0,0.0023244288749992847,0.0023244288749992847,1e-04,0.3700000047683716,1.2553600072860718,1.2553600072860718
386,1.0,0.0023199664428830147,0.0023199664428830147,1e-04,0.3700000047683716,1.2524423599243164,1.2524423599243164
387,1.0,0.0023143156431615353,0.0023143156431615353,1e-04,0.3700000047683716,1.2498364448547363,1.2498364448547363
388,1.0,0.0023099184036254883,0.0023099184036254883,1e-04,0.3700000047683716,1.246524691581726,1.246524691581726
389,1.0,0.0023046836722642183,0.0023046836722642183,1e-04,0.3700000047683716,1.243787407875061,1.243787407875061
390,1.0,0.0022994831670075655,0.0022994831670075655,1e-04,0.36000001430511475,1.2403353452682495,1.2403353452682495
391,1.0,0.002294705482199788,0.002294705482199788,1e-04,0.36000001430511475,1.2367324829101562,1.2367324829101562
392,1.0,0.0022889499086886644,0.0022889499086886644,1e-04,0.36000001430511475,1.233458161354065,1.233458161354065
393,1.0,0.002284155460074544,0.002284155460074544,1e-04,0.36000001430511475,1.2294303178787231,1.2294303178787231
394,1.0,0.0022783430758863688,0.0022783430758863688,1e-04,0.36000001430511475,1.2255929708480835,1.2255929708480835
395,1.0,0.0022729183547198772,0.0022729183547198772,1e-04,0.36000001430511475,1.2222583293914795,1.2222583293914795
396,1.0,0.002267985139042139,0.002267985139042139,1e-04,0.36000001430511475,1.2193126678466797,1.2193126678466797
397,1.0,0.002263216534629464,0.002263216534629464,1e-04,0.36000001430511475,1.2164843082427979,1.2164843082427979
398,1.0,0.002257981337606907,0.002257981337606907,1e-04,0.36000001430511475,1.2135735750198364,1.2135735750198364
399,1.0,0.002252045087516308,0.002252045087516308,1e-04,0.36000001430511475,1.2100367546081543,1.2100367546081543
400,1.0,0.002247253665700555,0.002247253665700555,1e-04,0.36000001430511475,1.2063932418823242,1.2063932418823242
401,1.0,0.0022417670115828514,0.0022417670115828514,1e-04,0.36000001430511475,1.2032785415649414,1.2032785415649414
402,1.0,0.0022373036481440067,0.0022373036481440067,1e-04,0.36000001430511475,1.1999022960662842,1.1999022960662842
403,1.0,0.0022321364376693964,0.0022321364376693964,1e-04,0.36000001430511475,1.1965044736862183,1.1965044736862183
404,1.0,0.0022276644594967365,0.0022276644594967365,1e-04,0.36000001430511475,1.1929123401641846,1.1929123401641846
405,1.0,0.0022225012071430683,0.0022225012071430683,1e-04,0.36000001430511475,1.1898589134216309,1.1898589134216309
406,1.0,0.0022172164171934128,0.0022172164171934128,1e-04,0.36000001430511475,1.1869362592697144,1.1869362592697144
407,1.0,0.0022124166134744883,0.0022124166134744883,1e-04,0.36000001430511475,1.1828964948654175,1.1828964948654175
408,1.0,0.0022080314811319113,0.0022080314811319113,1e-04,0.36000001430511475,1.1784131526947021,1.1784131526947021
409,1.0,0.002202796982601285,0.002202796982601285,1e-04,0.36000001430511475,1.1745190620422363,1.1745190620422363
410,1.0,0.0021977676078677177,0.0021977676078677177,1e-04,0.36000001430511475,1.1703979969024658,1.1703979969024658
411,1.0,0.002192811341956258,0.002192811341956258,1e-04,0.3700000047683716,1.1668556928634644,1.1668556928634644
412,1.0,0.002188531681895256,0.002188531681895256,1e-04,0.3700000047683716,1.1629481315612793,1.1629481315612793
413,1.0,0.0021833679638803005,0.0021833679638803005,1e-04,0.3700000047683716,1.1586858034133911,1.1586858034133911
414,1.0,0.0021782952826470137,0.0021782952826470137,1e-04,0.3700000047683716,1.155413031578064,1.155413031578064
415,1.0,0.0021731455344706774,0.0021731455344706774,1e-04,0.3700000047683716,1.152012825012207,1.152012825012207
416,1.0,0.002168819075450301,0.002168819075450301,1e-04,0.3700000047683716,1.1484781503677368,1.1484781503677368
417,1.0,0.002163776895031333,0.002163776895031333,1e-04,0.3700000047683716,1.1444569826126099,1.1444569826126099
418,1.0,0.002158745191991329,0.002158745191991329,1e-04,0.3700000047683716,1.1410104036331177,1.1410104036331177
419,1.0,0.0021542508620768785,0.0021542508620768785,1e-04,0.3700000047683716,1.1374868154525757,1.1374868154525757
420,1.0,0.002149752341210842,0.002149752341210842,1e-04,0.3700000047683716,1.1347843408584595,1.1347843408584595
421,1.0,0.0021450042258948088,0.0021450042258948088,1e-04,0.3700000047683716,1.1313495635986328,1.1313495635986328
422,1.0,0.002140115248039365,0.002140115248039365,1e-04,0.3700000047683716,1.127045750617981,1.127045750617981
423,1.0,0.0021366537548601627,0.0021366537548601627,1e-04,0.3700000047683716,1.1230573654174805,1.1230573654174805
424,1.0,0.0021306618582457304,0.0021306618582457304,1e-04,0.36000001430511475,1.1196032762527466,1.1196032762527466
425,1.0,0.0021256632171571255,0.0021256632171571255,1e-04,0.3700000047683716,1.1157124042510986,1.1157124042510986
426,1.0,0.0021210480481386185,0.0021210480481386185,1e-04,0.38999998569488525,1.1127448081970215,1.1127448081970215
427,1.0,0.002116530667990446,0.002116530667990446,1e-04,0.38999998569488525,1.110345721244812,1.110345721244812
428,1.0,0.0021118130534887314,0.0021118130534887314,1e-04,0.38999998569488525,1.106638789176941,1.106638789176941
429,1.0,0.0021071680821478367,0.0021071680821478367,1e-04,0.38999998569488525,1.102808952331543,1.102808952331543
430,1.0,0.0021027857437729836,0.0021027857437729836,1e-04,0.3799999952316284,1.0985661745071411,1.0985661745071411
431,1.0,0.0020981032866984606,0.0020981032866984606,1e-04,0.3799999952316284,1.0953906774520874,1.0953906774520874
432,1.0,0.0020925861317664385,0.0020925861317664385,1e-04,0.4099999964237213,1.092355489730835,1.092355489730835
433,1.0,0.0020879486110061407,0.0020879486110061407,1e-04,0.4099999964237213,1.0895291566848755,1.0895291566848755
434,1.0,0.0020834924653172493,0.0020834924653172493,1e-04,0.41999998688697815,1.0866144895553589,1.0866144895553589
435,1.0,0.0020786619279533625,0.0020786619279533625,1e-04,0.41999998688697815,1.0832961797714233,1.0832961797714233
436,1.0,0.0020743978675454855,0.0020743978675454855,1e-04,0.41999998688697815,1.0799442529678345,1.0799442529678345
437,1.0,0.0020698371808975935,0.0020698371808975935,1e-04,0.41999998688697815,1.077115774154663,1.077115774154663
438,1.0,0.0020654175896197557,0.0020654175896197557,1e-04,0.41999998688697815,1.0732500553131104,1.0732500553131104
439,1.0,0.002060406841337681,0.002060406841337681,1e-04,0.41999998688697815,1.0701725482940674,1.0701725482940674
440,1.0,0.0020556002855300903,0.0020556002855300903,1e-04,0.4300000071525574,1.067236304283142,1.067236304283142
441,1.0,0.002051384188234806,0.002051384188234806,1e-04,0.4399999976158142,1.064591884613037,1.064591884613037
442,1.0,0.0020472549367696047,0.0020472549367696047,1e-04,0.4399999976158142,1.0612139701843262,1.0612139701843262
443,1.0,0.0020428397692739964,0.0020428397692739964,1e-04,0.44999998807907104,1.057681679725647,1.057681679725647
444,1.0,0.0020383165683597326,0.0020383165683597326,1e-04,0.4399999976158142,1.0540668964385986,1.0540668964385986
445,1.0,0.0020339954644441605,0.0020339954644441605,1e-04,0.46000000834465027,1.050902009010315,1.050902009010315
446,1.0,0.0020294866990298033,0.0020294866990298033,1e-04,0.46000000834465027,1.0476746559143066,1.0476746559143066
447,1.0,0.002024757908657193,0.002024757908657193,1e-04,0.46000000834465027,1.0444436073303223,1.0444436073303223
448,1.0,0.0020201480947434902,0.0020201480947434902,1e-04,0.47999998927116394,1.0409847497940063,1.0409847497940063
449,1.0,0.0020153189543634653,0.0020153189543634653,1e-04,0.49000000953674316,1.03745698928833,1.03745698928833
450,1.0,0.0020107245072722435,0.0020107245072722435,1e-04,0.49000000953674316,1.0337226390838623,1.0337226390838623
451,1.0,0.0020063137635588646,0.0020063137635588646,1e-04,0.5,1.0290788412094116,1.0290788412094116
452,1.0,0.0020021398086100817,0.0020021398086100817,1e-04,0.5099999904632568,1.02521812915802,1.02521812915802
453,1.0,0.001997494138777256,0.001997494138777256,1e-04,0.5099999904632568,1.0215634107589722,1.0215634107589722
454,1.0,0.0019930109847337008,0.0019930109847337008,1e-04,0.5199999809265137,1.0177273750305176,1.0177273750305176
455,1.0,0.001989292912185192,0.001989292912185192,1e-04,0.5199999809265137,1.0137782096862793,1.0137782096862793
456,1.0,0.001985326176509261,0.001985326176509261,1e-04,0.5299999713897705,1.0091183185577393,1.0091183185577393
457,1.0,0.0019810153171420097,0.0019810153171420097,1e-04,0.550000011920929,1.0048807859420776,1.0048807859420776
458,1.0,0.0019770723301917315,0.0019770723301917315,1e-04,0.5600000023841858,1.0013381242752075,1.0013381242752075
459,1.0,0.001972330268472433,0.001972330268472433,1e-04,0.5600000023841858,0.9973599910736084,0.9973599910736084
460,1.0,0.0019680168479681015,0.0019680168479681015,1e-04,0.5699999928474426,0.9940220713615417,0.9940220713615417
461,1.0,0.0019632873591035604,0.0019632873591035604,1e-04,0.5699999928474426,0.9903408288955688,0.9903408288955688
462,1.0,0.0019588989671319723,0.0019588989671319723,1e-04,0.5699999928474426,0.9861878156661987,0.9861878156661987
463,1.0,0.001954448875039816,0.001954448875039816,1e-04,0.5799999833106995,0.9828668236732483,0.9828668236732483
464,1.0,0.0019506107782945037,0.0019506107782945037,1e-04,0.5799999833106995,0.978898823261261,0.978898823261261
465,1.0,0.0019457862945273519,0.0019457862945273519,1e-04,0.5799999833106995,0.9750019311904907,0.9750019311904907
466,1.0,0.0019424926722422242,0.0019424926722422242,1e-04,0.5799999833106995,0.9721425771713257,0.9721425771713257
467,1.0,0.001938060624524951,0.001938060624524951,1e-04,0.5799999833106995,0.9687900543212891,0.9687900543212891
468,1.0,0.0019346524495631456,0.0019346524495631456,1e-04,0.6000000238418579,0.9665308594703674,0.9665308594703674
469,1.0,0.0019305262248963118,0.0019305262248963118,1e-04,0.6000000238418579,0.9635823965072632,0.9635823965072632
470,1.0,0.0019258379470556974,0.0019258379470556974,1e-04,0.5899999737739563,0.9596589803695679,0.9596589803695679
471,1.0,0.0019218362867832184,0.0019218362867832184,1e-04,0.5899999737739563,0.9558312892913818,0.9558312892913818
472,1.0,0.0019178387010470033,0.0019178387010470033,1e-04,0.6000000238418579,0.95258629322052,0.95258629322052
473,1.0,0.0019134898902848363,0.0019134898902848363,1e-04,0.6000000238418579,0.9493098258972168,0.9493098258972168
474,1.0,0.0019095251336693764,0.0019095251336693764,1e-04,0.6100000143051147,0.9462047815322876,0.9462047815322876
475,1.0,0.0019056814489886165,0.0019056814489886165,1e-04,0.6100000143051147,0.9421040415763855,0.9421040415763855
476,1.0,0.0019014094723388553,0.0019014094723388553,1e-04,0.6299999952316284,0.9387619495391846,0.9387619495391846
477,1.0,0.0018972638063132763,0.0018972638063132763,1e-04,0.6399999856948853,0.9354059100151062,0.9354059100151062
478,1.0,0.0018929635407403111,0.0018929635407403111,1e-04,0.6499999761581421,0.9325769543647766,0.9325769543647766
479,1.0,0.0018893792293965816,0.0018893792293965816,1e-04,0.6499999761581421,0.9300374388694763,0.9300374388694763
480,1.0,0.0018857605755329132,0.0018857605755329132,1e-04,0.6399999856948853,0.9281801581382751,0.9281801581382751
481,1.0,0.0018815734656527638,0.0018815734656527638,1e-04,0.6399999856948853,0.9260856509208679,0.9260856509208679
482,1.0,0.0018774863565340638,0.0018774863565340638,1e-04,0.6399999856948853,0.9235641360282898,0.9235641360282898
483,1.0,0.0018732387106865644,0.0018732387106865644,1e-04,0.6600000262260437,0.919827401638031,0.919827401638031
484,1.0,0.001869103405624628,0.001869103405624628,1e-04,0.6600000262260437,0.9156601428985596,0.9156601428985596
485,1.0,0.0018654419109225273,0.0018654419109225273,1e-04,0.6600000262260437,0.9128375053405762,0.9128375053405762
486,1.0,0.0018617213936522603,0.0018617213936522603,1e-04,0.6700000166893005,0.9097347855567932,0.9097347855567932
487,1.0,0.0018582359189167619,0.0018582359189167619,1e-04,0.6700000166893005,0.9070342183113098,0.9070342183113098
488,1.0,0.0018538901349529624,0.0018538901349529624,1e-04,0.6700000166893005,0.9043908715248108,0.9043908715248108
489,1.0,0.0018498514546081424,0.0018498514546081424,1e-04,0.6700000166893005,0.9022091031074524,0.9022091031074524
490,1.0,0.001846367260441184,0.001846367260441184,1e-04,0.6700000166893005,0.8996936082839966,0.8996936082839966
491,1.0,0.0018418568652123213,0.0018418568652123213,1e-04,0.6700000166893005,0.8972911834716797,0.8972911834716797
492,1.0,0.0018378740642219782,0.0018378740642219782,1e-04,0.6700000166893005,0.8953578472137451,0.8953578472137451
493,1.0,0.0018341535469517112,0.0018341535469517112,1e-04,0.6700000166893005,0.8919776082038879,0.8919776082038879
494,1.0,0.0018302567768841982,0.0018302567768841982,1e-04,0.6700000166893005,0.8888719081878662,0.8888719081878662
495,1.0,0.0018262657104060054,0.0018262657104060054,1e-04,0.6700000166893005,0.8860356211662292,0.8860356211662292
496,1.0,0.0018227298278361559,0.0018227298278361559,1e-04,0.6700000166893005,0.8828428387641907,0.8828428387641907
497,1.0,0.0018190710106864572,0.0018190710106864572,1e-04,0.6700000166893005,0.8805201649665833,0.8805201649665833
498,1.0,0.0018156504957005382,0.0018156504957005382,1e-04,0.6700000166893005,0.8778470754623413,0.8778470754623413
499,1.0,0.0018115331185981631,0.0018115331185981631,1e-04,0.6800000071525574,0.8754713535308838,0.8754713535308838
500,1.0,0.001807471620850265,0.001807471620850265,1e-04,0.6800000071525574,0.87366783618927,0.87366783618927
501,1.0,0.0018032148946076632,0.0018032148946076632,1e-04,0.6800000071525574,0.871320366859436,0.871320366859436
502,1.0,0.0017987395403906703,0.0017987395403906703,1e-04,0.6800000071525574,0.8684899210929871,0.8684899210929871
503,1.0,0.0017955303192138672,0.0017955303192138672,1e-04,0.6800000071525574,0.866463840007782,0.866463840007782
504,1.0,0.0017918121302500367,0.0017918121302500367,1e-04,0.6800000071525574,0.8645743727684021,0.8645743727684021
505,1.0,0.001788265653885901,0.001788265653885901,1e-04,0.6800000071525574,0.862017810344696,0.862017810344696
506,1.0,0.0017842313973233104,0.0017842313973233104,1e-04,0.6800000071525574,0.8601649403572083,0.8601649403572083
507,1.0,0.0017808174015954137,0.0017808174015954137,1e-04,0.6899999976158142,0.8589219450950623,0.8589219450950623
508,1.0,0.0017772020073607564,0.0017772020073607564,1e-04,0.699999988079071,0.8574368357658386,0.8574368357658386
509,1.0,0.0017736151348799467,0.0017736151348799467,1e-04,0.699999988079071,0.8552423119544983,0.8552423119544983
510,1.0,0.0017696005525067449,0.0017696005525067449,1e-04,0.699999988079071,0.8534891605377197,0.8534891605377197
511,1.0,0.0017658297438174486,0.0017658297438174486,1e-04,0.699999988079071,0.8515172600746155,0.8515172600746155
512,1.0,0.0017623772146180272,0.0017623772146180272,1e-04,0.7099999785423279,0.8496665954589844,0.8496665954589844
513,1.0,0.0017585295718163252,0.0017585295718163252,1e-04,0.7099999785423279,0.8474327921867371,0.8474327921867371
514,1.0,0.0017556713428348303,0.0017556713428348303,1e-04,0.7200000286102295,0.8445990085601807,0.8445990085601807
515,1.0,0.0017516372026875615,0.0017516372026875615,1e-04,0.7200000286102295,0.842018187046051,0.842018187046051
516,1.0,0.0017481615068390965,0.0017481615068390965,1e-04,0.7300000190734863,0.8402079939842224,0.8402079939842224
517,1.0,0.0017446584533900023,0.0017446584533900023,1e-04,0.7300000190734863,0.8379039168357849,0.8379039168357849
518,1.0,0.0017408356070518494,0.0017408356070518494,1e-04,0.7300000190734863,0.8360629081726074,0.8360629081726074
519,1.0,0.0017374269664287567,0.0017374269664287567,1e-04,0.7300000190734863,0.8342503905296326,0.8342503905296326
520,1.0,0.0017335063312202692,0.0017335063312202692,1e-04,0.7300000190734863,0.8323179483413696,0.8323179483413696
521,1.0,0.0017299049068242311,0.0017299049068242311,1e-04,0.7300000190734863,0.8292335271835327,0.8292335271835327
522,1.0,0.0017260329332202673,0.0017260329332202673,1e-04,0.7400000095367432,0.8263577222824097,0.8263577222824097
523,1.0,0.0017229090444743633,0.0017229090444743633,1e-04,0.75,0.824383556842804,0.824383556842804
524,1.0,0.001719377818517387,0.001719377818517387,1e-04,0.75,0.8225263953208923,0.8225263953208923
525,1.0,0.0017156604444608092,0.0017156604444608092,1e-04,0.75,0.8209977746009827,0.8209977746009827
526,1.0,0.001711964257992804,0.001711964257992804,1e-04,0.75,0.8191261887550354,0.8191261887550354
527,1.0,0.0017086837906390429,0.0017086837906390429,1e-04,0.7599999904632568,0.8169706463813782,0.8169706463813782
528,1.0,0.0017051318427547812,0.0017051318427547812,1e-04,0.7599999904632568,0.8140308260917664,0.8140308260917664
529,1.0,0.0017016638303175569,0.0017016638303175569,1e-04,0.7599999904632568,0.8108274936676025,0.8108274936676025
530,1.0,0.0016976919723674655,0.0016976919723674655,1e-04,0.7599999904632568,0.8085749745368958,0.8085749745368958
531,1.0,0.0016943863593041897,0.0016943863593041897,1e-04,0.7599999904632568,0.8060311079025269,0.8060311079025269
532,1.0,0.0016906620003283024,0.0016906620003283024,1e-04,0.7599999904632568,0.803586483001709,0.803586483001709
533,1.0,0.001686727162450552,0.001686727162450552,1e-04,0.7599999904632568,0.8012967109680176,0.8012967109680176
534,1.0,0.001683476846665144,0.001683476846665144,1e-04,0.7599999904632568,0.7989324331283569,0.7989324331283569
535,1.0,0.0016800467856228352,0.0016800467856228352,1e-04,0.7599999904632568,0.7970765829086304,0.7970765829086304
536,1.0,0.0016771076479926705,0.0016771076479926705,1e-04,0.7599999904632568,0.7945854067802429,0.7945854067802429
537,1.0,0.0016738842241466045,0.0016738842241466045,1e-04,0.7599999904632568,0.7914557456970215,0.7914557456970215
538,1.0,0.001670690719038248,0.001670690719038248,1e-04,0.7599999904632568,0.7884355187416077,0.7884355187416077
539,1.0,0.0016670010518282652,0.0016670010518282652,1e-04,0.7599999904632568,0.7854945659637451,0.7854945659637451
540,1.0,0.001663321745581925,0.001663321745581925,1e-04,0.7599999904632568,0.7831663489341736,0.7831663489341736
541,1.0,0.0016601724782958627,0.0016601724782958627,1e-04,0.7599999904632568,0.7811540365219116,0.7811540365219116
542,1.0,0.0016564293764531612,0.0016564293764531612,1e-04,0.7599999904632568,0.7786856293678284,0.7786856293678284
543,1.0,0.0016530707944184542,0.0016530707944184542,1e-04,0.7599999904632568,0.7757453322410583,0.7757453322410583
544,1.0,0.0016503699589520693,0.0016503699589520693,1e-04,0.7699999809265137,0.7729393243789673,0.7729393243789673
545,1.0,0.0016465478111058474,0.0016465478111058474,1e-04,0.7699999809265137,0.7697453498840332,0.7697453498840332
546,1.0,0.0016431408002972603,0.0016431408002972603,1e-04,0.7699999809265137,0.7670393586158752,0.7670393586158752
547,1.0,0.0016398243606090546,0.0016398243606090546,1e-04,0.7699999809265137,0.7644135355949402,0.7644135355949402
548,1.0,0.0016368543729186058,0.0016368543729186058,1e-04,0.7699999809265137,0.7617778778076172,0.7617778778076172
549,1.0,0.0016333257080987096,0.0016333257080987096,1e-04,0.7799999713897705,0.7589136362075806,0.7589136362075806
550,1.0,0.00162946293130517,0.00162946293130517,1e-04,0.7799999713897705,0.7562072277069092,0.7562072277069092
551,1.0,0.0016263477737084031,0.0016263477737084031,1e-04,0.7799999713897705,0.7532721161842346,0.7532721161842346
552,1.0,0.0016233243513852358,0.0016233243513852358,1e-04,0.7799999713897705,0.7502397894859314,0.7502397894859314
553,1.0,0.0016205061692744493,0.0016205061692744493,1e-04,0.7799999713897705,0.7477185130119324,0.7477185130119324
554,1.0,0.0016176685458049178,0.0016176685458049178,1e-04,0.7799999713897705,0.7449650764465332,0.7449650764465332
555,1.0,0.0016145781846717,0.0016145781846717,1e-04,0.7799999713897705,0.7429155111312866,0.7429155111312866
556,1.0,0.0016112806042656302,0.0016112806042656302,1e-04,0.7799999713897705,0.7413067817687988,0.7413067817687988
557,1.0,0.0016074844170361757,0.0016074844170361757,1e-04,0.7799999713897705,0.7386532425880432,0.7386532425880432
558,1.0,0.0016041223425418139,0.0016041223425418139,1e-04,0.7799999713897705,0.7355798482894897,0.7355798482894897
559,1.0,0.0016007301164790988,0.0016007301164790988,1e-04,0.7799999713897705,0.732728123664856,0.732728123664856
560,1.0,0.001597542897798121,0.001597542897798121,1e-04,0.7799999713897705,0.7300291657447815,0.7300291657447815
561,1.0,0.0015944698825478554,0.0015944698825478554,1e-04,0.7799999713897705,0.7277197241783142,0.7277197241783142
562,1.0,0.0015910175861790776,0.0015910175861790776,1e-04,0.7799999713897705,0.7247636318206787,0.7247636318206787
563,1.0,0.0015881466679275036,0.0015881466679275036,1e-04,0.7799999713897705,0.7219637036323547,0.7219637036323547
564,1.0,0.0015851707430556417,0.0015851707430556417,1e-04,0.7799999713897705,0.7193018198013306,0.7193018198013306
565,1.0,0.001582270604558289,0.001582270604558289,1e-04,0.7900000214576721,0.7164486646652222,0.7164486646652222
566,1.0,0.00157905463129282,0.00157905463129282,1e-04,0.7900000214576721,0.7131110429763794,0.7131110429763794
567,1.0,0.0015758562367409468,0.0015758562367409468,1e-04,0.7900000214576721,0.7102314829826355,0.7102314829826355
568,1.0,0.001573022804223001,0.001573022804223001,1e-04,0.7900000214576721,0.7082992792129517,0.7082992792129517
569,1.0,0.0015700189396739006,0.0015700189396739006,1e-04,0.7900000214576721,0.705935537815094,0.705935537815094
570,1.0,0.0015664990060031414,0.0015664990060031414,1e-04,0.800000011920929,0.7036592364311218,0.7036592364311218
571,1.0,0.0015631120186299086,0.0015631120186299086,1e-04,0.800000011920929,0.7007035613059998,0.7007035613059998
572,1.0,0.0015599295729771256,0.0015599295729771256,1e-04,0.800000011920929,0.6977876424789429,0.6977876424789429
573,1.0,0.001557040261104703,0.001557040261104703,1e-04,0.800000011920929,0.6953478455543518,0.6953478455543518
574,1.0,0.0015543365152552724,0.0015543365152552724,1e-04,0.800000011920929,0.6927183270454407,0.6927183270454407
575,1.0,0.001551169203594327,0.001551169203594327,1e-04,0.800000011920929,0.6897853016853333,0.6897853016853333
576,1.0,0.00154765578918159,0.00154765578918159,1e-04,0.800000011920929,0.6866228580474854,0.6866228580474854
577,1.0,0.0015447974437847733,0.0015447974437847733,1e-04,0.800000011920929,0.6835418939590454,0.6835418939590454
578,1.0,0.0015415617963299155,0.0015415617963299155,1e-04,0.800000011920929,0.680403470993042,0.680403470993042
579,1.0,0.0015391020569950342,0.0015391020569950342,1e-04,0.800000011920929,0.6778469085693359,0.6778469085693359
580,1.0,0.001536061754450202,0.001536061754450202,1e-04,0.800000011920929,0.6755534410476685,0.6755534410476685
581,1.0,0.0015330788446590304,0.0015330788446590304,1e-04,0.800000011920929,0.6725947856903076,0.6725947856903076
582,1.0,0.0015299515798687935,0.0015299515798687935,1e-04,0.800000011920929,0.6702850461006165,0.6702850461006165
583,1.0,0.0015270683215931058,0.0015270683215931058,1e-04,0.800000011920929,0.6676484942436218,0.6676484942436218
584,1.0,0.0015238919295370579,0.0015238919295370579,1e-04,0.800000011920929,0.6646571159362793,0.6646571159362793
585,1.0,0.001521172234788537,0.001521172234788537,1e-04,0.800000011920929,0.6612527370452881,0.6612527370452881
586,1.0,0.0015181786147877574,0.0015181786147877574,1e-04,0.800000011920929,0.6581423878669739,0.6581423878669739
587,1.0,0.0015154860448092222,0.0015154860448092222,1e-04,0.800000011920929,0.6554359197616577,0.6554359197616577
588,1.0,0.0015130271203815937,0.0015130271203815937,1e-04,0.800000011920929,0.6524554491043091,0.6524554491043091
589,1.0,0.0015096582937985659,0.0015096582937985659,1e-04,0.800000011920929,0.6502489447593689,0.6502489447593689
590,1.0,0.0015068028587847948,0.0015068028587847948,1e-04,0.800000011920929,0.6476281881332397,0.6476281881332397
591,1.0,0.0015041254227980971,0.0015041254227980971,1e-04,0.800000011920929,0.6448282599449158,0.6448282599449158
592,1.0,0.001501734834164381,0.001501734834164381,1e-04,0.800000011920929,0.6419541239738464,0.6419541239738464
593,1.0,0.0014981345739215612,0.0014981345739215612,1e-04,0.800000011920929,0.639233410358429,0.639233410358429
594,1.0,0.0014949062606319785,0.0014949062606319785,1e-04,0.800000011920929,0.6365457773208618,0.6365457773208618
595,1.0,0.0014915955252945423,0.0014915955252945423,1e-04,0.800000011920929,0.6338683366775513,0.6338683366775513
596,1.0,0.0014891051687300205,0.0014891051687300205,1e-04,0.800000011920929,0.6304841637611389,0.6304841637611389
597,1.0,0.00148670410271734,0.00148670410271734,1e-04,0.800000011920929,0.628023624420166,0.628023624420166
598,1.0,0.001483662286773324,0.001483662286773324,1e-04,0.8100000023841858,0.6246015429496765,0.6246015429496765
599,1.0,0.0014803818194195628,0.0014803818194195628,1e-04,0.8100000023841858,0.621730387210846,0.621730387210846
600,1.0,0.0014776454772800207,0.0014776454772800207,1e-04,0.8100000023841858,0.618943452835083,0.618943452835083
601,1.0,0.0014750906266272068,0.0014750906266272068,1e-04,0.8199999928474426,0.6162356734275818,0.6162356734275818
602,1.0,0.001472538453526795,0.001472538453526795,1e-04,0.8199999928474426,0.6137530207633972,0.6137530207633972
603,1.0,0.0014695749850943685,0.0014695749850943685,1e-04,0.8199999928474426,0.6103358268737793,0.6103358268737793
604,1.0,0.001466606743633747,0.001466606743633747,1e-04,0.8199999928474426,0.6067783236503601,0.6067783236503601
605,1.0,0.001464058761484921,0.001464058761484921,1e-04,0.8199999928474426,0.6039564609527588,0.6039564609527588
606,1.0,0.0014611172955483198,0.0014611172955483198,1e-04,0.8199999928474426,0.6012101173400879,0.6012101173400879
607,1.0,0.0014587437035515904,0.0014587437035515904,1e-04,0.8199999928474426,0.5993068814277649,0.5993068814277649
608,1.0,0.0014556992100551724,0.0014556992100551724,1e-04,0.8199999928474426,0.596497118473053,0.596497118473053
609,1.0,0.0014529022155329585,0.0014529022155329585,1e-04,0.8199999928474426,0.5933398604393005,0.5933398604393005
610,1.0,0.0014499267563223839,0.0014499267563223839,1e-04,0.8100000023841858,0.5908367037773132,0.5908367037773132
611,1.0,0.0014475977513939142,0.0014475977513939142,1e-04,0.8100000023841858,0.5875341296195984,0.5875341296195984
612,1.0,0.001444860827177763,0.001444860827177763,1e-04,0.8199999928474426,0.5844200849533081,0.5844200849533081
613,1.0,0.0014421154046431184,0.0014421154046431184,1e-04,0.8199999928474426,0.581477165222168,0.581477165222168
614,1.0,0.0014393633464351296,0.0014393633464351296,1e-04,0.8199999928474426,0.5795073509216309,0.5795073509216309
615,1.0,0.0014364415546879172,0.0014364415546879172,1e-04,0.8299999833106995,0.5768773555755615,0.5768773555755615
616,1.0,0.0014336337335407734,0.0014336337335407734,1e-04,0.8299999833106995,0.5746021866798401,0.5746021866798401
617,1.0,0.0014308892423287034,0.0014308892423287034,1e-04,0.8299999833106995,0.571972668170929,0.571972668170929
618,1.0,0.001428457791917026,0.001428457791917026,1e-04,0.8299999833106995,0.5688781142234802,0.5688781142234802
619,1.0,0.001425846479833126,0.001425846479833126,1e-04,0.8399999737739563,0.5661235451698303,0.5661235451698303
620,1.0,0.00142294866964221,0.00142294866964221,1e-04,0.8399999737739563,0.5630162954330444,0.5630162954330444
621,1.0,0.001420292304828763,0.001420292304828763,1e-04,0.8399999737739563,0.5597795844078064,0.5597795844078064
622,1.0,0.0014175985706970096,0.0014175985706970096,1e-04,0.8399999737739563,0.5567762851715088,0.5567762851715088
623,1.0,0.001414934522472322,0.001414934522472322,1e-04,0.8399999737739563,0.5543947815895081,0.5543947815895081
624,1.0,0.0014121137792244554,0.0014121137792244554,1e-04,0.8399999737739563,0.5521533489227295,0.5521533489227295
625,1.0,0.0014097774401307106,0.0014097774401307106,1e-04,0.8399999737739563,0.5498611330986023,0.5498611330986023
626,1.0,0.0014071742771193385,0.0014071742771193385,1e-04,0.8399999737739563,0.5477323532104492,0.5477323532104492
627,1.0,0.0014046950964257121,0.0014046950964257121,1e-04,0.8399999737739563,0.5456636548042297,0.5456636548042297
628,1.0,0.0014018705114722252,0.0014018705114722252,1e-04,0.8399999737739563,0.5437127947807312,0.5437127947807312
629,1.0,0.0013996128691360354,0.0013996128691360354,1e-04,0.8399999737739563,0.5407028794288635,0.5407028794288635
630,1.0,0.0013964521931484342,0.0013964521931484342,1e-04,0.8399999737739563,0.5381327271461487,0.5381327271461487
631,1.0,0.0013941198121756315,0.0013941198121756315,1e-04,0.8399999737739563,0.5356777310371399,0.5356777310371399
632,1.0,0.0013913707807660103,0.0013913707807660103,1e-04,0.8399999737739563,0.5328360795974731,0.5328360795974731
633,1.0,0.0013887101085856557,0.0013887101085856557,1e-04,0.8500000238418579,0.5303124785423279,0.5303124785423279
634,1.0,0.0013858780730515718,0.0013858780730515718,1e-04,0.8500000238418579,0.5281035900115967,0.5281035900115967
635,1.0,0.0013832624536007643,0.0013832624536007643,1e-04,0.8600000143051147,0.5260456204414368,0.5260456204414368
636,1.0,0.0013809268129989505,0.0013809268129989505,1e-04,0.8600000143051147,0.5240709185600281,0.5240709185600281
637,1.0,0.0013777281856164336,0.0013777281856164336,1e-04,0.8600000143051147,0.5219491720199585,0.5219491720199585
638,1.0,0.001375537714920938,0.001375537714920938,1e-04,0.8700000047683716,0.5203341841697693,0.5203341841697693
639,1.0,0.001373023958876729,0.001373023958876729,1e-04,0.8700000047683716,0.5177570581436157,0.5177570581436157
640,1.0,0.001370510901324451,0.001370510901324451,1e-04,0.8700000047683716,0.5152265429496765,0.5152265429496765
641,1.0,0.001367822173051536,0.001367822173051536,1e-04,0.8700000047683716,0.5126705169677734,0.5126705169677734
642,1.0,0.0013655700022354722,0.0013655700022354722,1e-04,0.8700000047683716,0.5109415054321289,0.5109415054321289
643,1.0,0.0013633003691211343,0.0013633003691211343,1e-04,0.8700000047683716,0.5084888935089111,0.5084888935089111
644,1.0,0.001360468682833016,0.001360468682833016,1e-04,0.8700000047683716,0.5064586997032166,0.5064586997032166
645,1.0,0.0013582090614363551,0.0013582090614363551,1e-04,0.8700000047683716,0.5045023560523987,0.5045023560523987
646,1.0,0.0013553594471886754,0.0013553594471886754,1e-04,0.8700000047683716,0.5025060176849365,0.5025060176849365
647,1.0,0.0013528999406844378,0.0013528999406844378,1e-04,0.8700000047683716,0.5008262395858765,0.5008262395858765
648,1.0,0.0013506049290299416,0.0013506049290299416,1e-04,0.8799999952316284,0.4988115727901459,0.4988115727901459
649,1.0,0.001347849378362298,0.001347849378362298,1e-04,0.8799999952316284,0.4971644878387451,0.4971644878387451
650,1.0,0.001345541444607079,0.001345541444607079,1e-04,0.8799999952316284,0.49568861722946167,0.49568861722946167
651,1.0,0.0013429309474304318,0.0013429309474304318,1e-04,0.8799999952316284,0.49420973658561707,0.49420973658561707
652,1.0,0.0013409615494310856,0.0013409615494310856,1e-04,0.8799999952316284,0.49231192469596863,0.49231192469596863
653,1.0,0.00133862707298249,0.00133862707298249,1e-04,0.8799999952316284,0.4902711808681488,0.4902711808681488
654,1.0,0.0013360627926886082,0.0013360627926886082,1e-04,0.8799999952316284,0.48875322937965393,0.48875322937965393
655,1.0,0.0013332479866221547,0.0013332479866221547,1e-04,0.8799999952316284,0.48732081055641174,0.48732081055641174
656,1.0,0.0013306689215824008,0.0013306689215824008,1e-04,0.8799999952316284,0.48481085896492004,0.48481085896492004
657,1.0,0.0013276172103360295,0.0013276172103360295,1e-04,0.8799999952316284,0.4823666512966156,0.4823666512966156
658,1.0,0.0013251687632873654,0.0013251687632873654,1e-04,0.8799999952316284,0.4804004430770874,0.4804004430770874
659,1.0,0.0013231027405709028,0.0013231027405709028,1e-04,0.8799999952316284,0.478855699300766,0.478855699300766
660,1.0,0.0013209410244598985,0.0013209410244598985,1e-04,0.8799999952316284,0.47746700048446655,0.47746700048446655
661,1.0,0.0013184786075726151,0.0013184786075726151,1e-04,0.8799999952316284,0.4755416810512543,0.4755416810512543
662,1.0,0.0013162614777684212,0.0013162614777684212,1e-04,0.8799999952316284,0.47392696142196655,0.47392696142196655
663,1.0,0.0013137656496837735,0.0013137656496837735,1e-04,0.8799999952316284,0.4722243547439575,0.4722243547439575
664,1.0,0.0013114175526425242,0.0013114175526425242,1e-04,0.8799999952316284,0.47035109996795654,0.47035109996795654
665,1.0,0.001309365383349359,0.001309365383349359,1e-04,0.8799999952316284,0.4687122106552124,0.4687122106552124
666,1.0,0.0013067936524748802,0.0013067936524748802,1e-04,0.8799999952316284,0.46700119972229004,0.46700119972229004
667,1.0,0.0013042991049587727,0.0013042991049587727,1e-04,0.8700000047683716,0.4655589163303375,0.4655589163303375
668,1.0,0.0013020007172599435,0.0013020007172599435,1e-04,0.8799999952316284,0.46436169743537903,0.46436169743537903
669,1.0,0.0012991615803912282,0.0012991615803912282,1e-04,0.8799999952316284,0.46297991275787354,0.46297991275787354
670,1.0,0.0012970736715942621,0.0012970736715942621,1e-04,0.8799999952316284,0.461831659078598,0.461831659078598
671,1.0,0.0012944681802764535,0.0012944681802764535,1e-04,0.8799999952316284,0.46028926968574524,0.46028926968574524
672,1.0,0.001292185508646071,0.001292185508646071,1e-04,0.8799999952316284,0.45901328325271606,0.45901328325271606
673,1.0,0.0012895449763163924,0.0012895449763163924,1e-04,0.8799999952316284,0.4575420618057251,0.4575420618057251
674,1.0,0.0012872128281742334,0.0012872128281742334,1e-04,0.8899999856948853,0.456320583820343,0.456320583820343
675,1.0,0.0012848202604800463,0.0012848202604800463,1e-04,0.8999999761581421,0.4553402364253998,0.4553402364253998
676,1.0,0.001282627577893436,0.001282627577893436,1e-04,0.8999999761581421,0.4539403021335602,0.4539403021335602
677,1.0,0.0012803684221580625,0.0012803684221580625,1e-04,0.9100000262260437,0.45240989327430725,0.45240989327430725
678,1.0,0.0012784311547875404,0.0012784311547875404,1e-04,0.9100000262260437,0.4513033330440521,0.4513033330440521
679,1.0,0.001276287017390132,0.001276287017390132,1e-04,0.8999999761581421,0.4503366947174072,0.4503366947174072
680,1.0,0.001273773959837854,0.001273773959837854,1e-04,0.8999999761581421,0.449105829000473,0.449105829000473
681,1.0,0.001271896413527429,0.001271896413527429,1e-04,0.8999999761581421,0.447519451379776,0.447519451379776
682,1.0,0.0012695703189820051,0.0012695703189820051,1e-04,0.8999999761581421,0.44607093930244446,0.44607093930244446
683,1.0,0.0012671307194977999,0.0012671307194977999,1e-04,0.8999999761581421,0.44488152861595154,0.44488152861595154
684,1.0,0.0012647659750655293,0.0012647659750655293,1e-04,0.8999999761581421,0.443831205368042,0.443831205368042
685,1.0,0.0012623914517462254,0.0012623914517462254,1e-04,0.8999999761581421,0.4428683817386627,0.4428683817386627
686,1.0,0.0012601923663169146,0.0012601923663169146,1e-04,0.8999999761581421,0.4417036771774292,0.4417036771774292
687,1.0,0.001257934607565403,0.001257934607565403,1e-04,0.9100000262260437,0.44068416953086853,0.44068416953086853
688,1.0,0.0012557569425553083,0.0012557569425553083,1e-04,0.9100000262260437,0.4393532872200012,0.4393532872200012
689,1.0,0.0012539821909740567,0.0012539821909740567,1e-04,0.9100000262260437,0.4381331503391266,0.4381331503391266
690,1.0,0.0012516197748482227,0.0012516197748482227,1e-04,0.9100000262260437,0.43695759773254395,0.43695759773254395
691,1.0,0.0012494955444708467,0.0012494955444708467,1e-04,0.8999999761581421,0.4361284673213959,0.4361284673213959
692,1.0,0.0012465940089896321,0.0012465940089896321,1e-04,0.8999999761581421,0.4353768527507782,0.4353768527507782
693,1.0,0.001244638697244227,0.001244638697244227,1e-04,0.8999999761581421,0.4341962933540344,0.4341962933540344
694,1.0,0.0012424599844962358,0.0012424599844962358,1e-04,0.8999999761581421,0.4330824315547943,0.4330824315547943
695,1.0,0.001240081386640668,0.001240081386640668,1e-04,0.8999999761581421,0.4319716989994049,0.4319716989994049
696,1.0,0.0012377634411677718,0.0012377634411677718,1e-04,0.8999999761581421,0.431140661239624,0.431140661239624
697,1.0,0.0012355507351458073,0.0012355507351458073,1e-04,0.8999999761581421,0.43021029233932495,0.43021029233932495
698,1.0,0.001233269926160574,0.001233269926160574,1e-04,0.8999999761581421,0.4294683337211609,0.4294683337211609
699,1.0,0.0012311377795413136,0.0012311377795413136,1e-04,0.8899999856948853,0.42862555384635925,0.42862555384635925
700,1.0,0.001228955341503024,0.001228955341503024,1e-04,0.8899999856948853,0.42769116163253784,0.42769116163253784
701,1.0,0.0012266701087355614,0.0012266701087355614,1e-04,0.8899999856948853,0.4270407557487488,0.4270407557487488
702,1.0,0.0012243370292708278,0.0012243370292708278,1e-04,0.8899999856948853,0.4262829124927521,0.4262829124927521
703,1.0,0.001222201157361269,0.001222201157361269,1e-04,0.8899999856948853,0.4253338575363159,0.4253338575363159
704,1.0,0.0012204389786347747,0.0012204389786347747,1e-04,0.8899999856948853,0.4242728352546692,0.4242728352546692
705,1.0,0.001218587625771761,0.001218587625771761,1e-04,0.8799999952316284,0.4233802556991577,0.4233802556991577
706,1.0,0.001216310542076826,0.001216310542076826,1e-04,0.8799999952316284,0.42247748374938965,0.42247748374938965
707,1.0,0.0012143743224442005,0.0012143743224442005,1e-04,0.8799999952316284,0.42171502113342285,0.42171502113342285
708,1.0,0.0012118578888475895,0.0012118578888475895,1e-04,0.8799999952316284,0.4210839867591858,0.4210839867591858
709,1.0,0.0012098251609131694,0.0012098251609131694,1e-04,0.8799999952316284,0.42038074135780334,0.42038074135780334
710,1.0,0.0012077505234628916,0.0012077505234628916,1e-04,0.8799999952316284,0.4194870889186859,0.4194870889186859
711,1.0,0.0012051627272740006,0.0012051627272740006,1e-04,0.8799999952316284,0.41880032420158386,0.41880032420158386
712,1.0,0.0012033919338136911,0.0012033919338136911,1e-04,0.8799999952316284,0.4184000790119171,0.4184000790119171
713,1.0,0.0012012424413114786,0.0012012424413114786,1e-04,0.8799999952316284,0.41770824790000916,0.41770824790000916
714,1.0,0.0011989116901531816,0.0011989116901531816,1e-04,0.8799999952316284,0.41714969277381897,0.41714969277381897
715,1.0,0.0011965525336563587,0.0011965525336563587,1e-04,0.8700000047683716,0.41641438007354736,0.41641438007354736
716,1.0,0.001194759621284902,0.001194759621284902,1e-04,0.8700000047683716,0.41575637459754944,0.41575637459754944
717,1.0,0.0011926563456654549,0.0011926563456654549,1e-04,0.8700000047683716,0.41502147912979126,0.41502147912979126
718,1.0,0.001190435723401606,0.001190435723401606,1e-04,0.8700000047683716,0.4143325090408325,0.4143325090408325
719,1.0,0.0011885971762239933,0.0011885971762239933,1e-04,0.8700000047683716,0.4136413335800171,0.4136413335800171
720,1.0,0.0011862762039527297,0.0011862762039527297,1e-04,0.8700000047683716,0.4132542908191681,0.4132542908191681
721,1.0,0.0011839449871331453,0.0011839449871331453,1e-04,0.8700000047683716,0.4127805233001709,0.4127805233001709
722,1.0,0.0011818507919088006,0.0011818507919088006,1e-04,0.8700000047683716,0.412018358707428,0.412018358707428
723,1.0,0.0011796794133260846,0.0011796794133260846,1e-04,0.8700000047683716,0.41156619787216187,0.41156619787216187
724,1.0,0.0011779745109379292,0.0011779745109379292,1e-04,0.8700000047683716,0.41101711988449097,0.41101711988449097
725,1.0,0.001176157733425498,0.001176157733425498,1e-04,0.8700000047683716,0.41042250394821167,0.41042250394821167
726,1.0,0.0011747201206162572,0.0011747201206162572,1e-04,0.8700000047683716,0.40991079807281494,0.40991079807281494
727,1.0,0.0011726919328793883,0.0011726919328793883,1e-04,0.8700000047683716,0.4094582796096802,0.4094582796096802
728,1.0,0.0011702346382662654,0.0011702346382662654,1e-04,0.8700000047683716,0.4092695116996765,0.4092695116996765
729,1.0,0.001168135437183082,0.001168135437183082,1e-04,0.8700000047683716,0.40890902280807495,0.40890902280807495
730,1.0,0.0011661169119179249,0.0011661169119179249,1e-04,0.8700000047683716,0.40862250328063965,0.40862250328063965
731,1.0,0.001164050423540175,0.001164050423540175,1e-04,0.8700000047683716,0.4078608751296997,0.4078608751296997
732,1.0,0.0011622544843703508,0.0011622544843703508,1e-04,0.8700000047683716,0.4073473811149597,0.4073473811149597
733,1.0,0.0011599216377362609,0.0011599216377362609,1e-04,0.8700000047683716,0.4069731831550598,0.4069731831550598
734,1.0,0.0011580806458368897,0.0011580806458368897,1e-04,0.8700000047683716,0.4064881205558777,0.4064881205558777
735,1.0,0.001155934063717723,0.001155934063717723,1e-04,0.8700000047683716,0.4061504006385803,0.4061504006385803
736,1.0,0.001154014840722084,0.001154014840722084,1e-04,0.8700000047683716,0.4059673547744751,0.4059673547744751
737,1.0,0.0011519287945702672,0.0011519287945702672,1e-04,0.8700000047683716,0.40550467371940613,0.40550467371940613
738,1.0,0.0011500096879899502,0.0011500096879899502,1e-04,0.8700000047683716,0.4052329361438751,0.4052329361438751
739,1.0,0.001147959497757256,0.001147959497757256,1e-04,0.8700000047683716,0.40488624572753906,0.40488624572753906
740,1.0,0.0011456463253125548,0.0011456463253125548,1e-04,0.8600000143051147,0.40450024604797363,0.40450024604797363
741,1.0,0.0011436939239501953,0.0011436939239501953,1e-04,0.8600000143051147,0.40438219904899597,0.40438219904899597
742,1.0,0.0011416587512940168,0.0011416587512940168,1e-04,0.8600000143051147,0.40410315990448,0.40410315990448
743,1.0,0.0011398226488381624,0.0011398226488381624,1e-04,0.8600000143051147,0.4039386808872223,0.4039386808872223
744,1.0,0.0011378786293789744,0.0011378786293789744,1e-04,0.8600000143051147,0.403667151927948,0.403667151927948
745,1.0,0.0011357440380379558,0.0011357440380379558,1e-04,0.8600000143051147,0.40343502163887024,0.40343502163887024
746,1.0,0.0011338986223563552,0.0011338986223563552,1e-04,0.8600000143051147,0.4031605124473572,0.4031605124473572
747,1.0,0.0011317557655274868,0.0011317557655274868,1e-04,0.8700000047683716,0.4028010964393616,0.4028010964393616
748,1.0,0.0011299747275188565,0.0011299747275188565,1e-04,0.8700000047683716,0.4027004539966583,0.4027004539966583
749,1.0,0.0011284579522907734,0.0011284579522907734,1e-04,0.8700000047683716,0.402500182390213,0.402500182390213
750,1.0,0.0011263174237683415,0.0011263174237683415,1e-04,0.8700000047683716,0.4022705852985382,0.4022705852985382
751,1.0,0.0011241198517382145,0.0011241198517382145,1e-04,0.8700000047683716,0.40201637148857117,0.40201637148857117
752,1.0,0.0011226206552237272,0.0011226206552237272,1e-04,0.8700000047683716,0.4019535183906555,0.4019535183906555
753,1.0,0.0011204080656170845,0.0011204080656170845,1e-04,0.8700000047683716,0.401556134223938,0.401556134223938
754,1.0,0.0011185182956978679,0.0011185182956978679,1e-04,0.8700000047683716,0.4014846682548523,0.4014846682548523
755,1.0,0.0011169173521921039,0.0011169173521921039,1e-04,0.8700000047683716,0.4015076458454132,0.4015076458454132
756,1.0,0.001114963204599917,0.001114963204599917,1e-04,0.8700000047683716,0.40137943625450134,0.40137943625450134
757,1.0,0.001113362261094153,0.001113362261094153,1e-04,0.8700000047683716,0.40139904618263245,0.40139904618263245
758,1.0,0.0011113594518974423,0.0011113594518974423,1e-04,0.8700000047683716,0.4010986089706421,0.4010986089706421
759,1.0,0.0011089200852438807,0.0011089200852438807,1e-04,0.8700000047683716,0.4009797275066376,0.4009797275066376
760,1.0,0.00110722950194031,0.00110722950194031,1e-04,0.8700000047683716,0.40092769265174866,0.40092769265174866
761,1.0,0.0011050559114664793,0.0011050559114664793,1e-04,0.8700000047683716,0.40076443552970886,0.40076443552970886
762,1.0,0.001103016547858715,0.001103016547858715,1e-04,0.8700000047683716,0.4006994664669037,0.4006994664669037
763,1.0,0.0011011429596692324,0.0011011429596692324,1e-04,0.8700000047683716,0.40072113275527954,0.40072113275527954
764,1.0,0.0010992095340043306,0.0010992095340043306,1e-04,0.8700000047683716,0.40068113803863525,0.40068113803863525
765,1.0,0.0010974969482049346,0.0010974969482049346,1e-04,0.8700000047683716,0.40063759684562683,0.40063759684562683
766,1.0,0.001095806248486042,0.001095806248486042,1e-04,0.8700000047683716,0.4004446268081665,0.4004446268081665
767,1.0,0.0010937117040157318,0.0010937117040157318,1e-04,0.8700000047683716,0.4004634916782379,0.4004634916782379
768,1.0,0.0010920041240751743,0.0010920041240751743,1e-04,0.8700000047683716,0.40040627121925354,0.40040627121925354
769,1.0,0.0010900658089667559,0.0010900658089667559,1e-04,0.8700000047683716,0.4003130793571472,0.4003130793571472
770,1.0,0.0010881975758820772,0.0010881975758820772,1e-04,0.8700000047683716,0.4002072513103485,0.4002072513103485
771,1.0,0.0010861784685403109,0.0010861784685403109,1e-04,0.8700000047683716,0.40021759271621704,0.40021759271621704
772,1.0,0.0010841793846338987,0.0010841793846338987,1e-04,0.8700000047683716,0.40030258893966675,0.40030258893966675
773,1.0,0.0010823382763192058,0.0010823382763192058,1e-04,0.8700000047683716,0.4001811146736145,0.4001811146736145
774,1.0,0.0010806985665112734,0.0010806985665112734,1e-04,0.8700000047683716,0.40011700987815857,0.40011700987815857
775,1.0,0.0010784799233078957,0.0010784799233078957,1e-04,0.8700000047683716,0.40001511573791504,0.40001511573791504
776,1.0,0.0010770425433292985,0.0010770425433292985,1e-04,0.8700000047683716,0.3999837636947632,0.3999837636947632
777,1.0,0.0010753051610663533,0.0010753051610663533,1e-04,0.8700000047683716,0.40003058314323425,0.40003058314323425
778,1.0,0.0010737006086856127,0.0010737006086856127,1e-04,0.8700000047683716,0.4000854790210724,0.4000854790210724
779,1.0,0.0010716415708884597,0.0010716415708884597,1e-04,0.8700000047683716,0.39991164207458496,0.39991164207458496
780,1.0,0.0010697911493480206,0.0010697911493480206,1e-04,0.8700000047683716,0.3999861180782318,0.3999861180782318
781,1.0,0.0010680218692868948,0.0010680218692868948,1e-04,0.8700000047683716,0.39993447065353394,0.39993447065353394
782,1.0,0.0010662692366167903,0.0010662692366167903,1e-04,0.8700000047683716,0.399947851896286,0.399947851896286
783,1.0,0.001064405543729663,0.001064405543729663,1e-04,0.8700000047683716,0.39989984035491943,0.39989984035491943
784,1.0,0.0010621539549902081,0.0010621539549902081,1e-04,0.8700000047683716,0.3998945355415344,0.3998945355415344
785,1.0,0.001060354057699442,0.001060354057699442,1e-04,0.8700000047683716,0.3999047875404358,0.3999047875404358
786,1.0,0.0010585476411506534,0.0010585476411506534,1e-04,0.8700000047683716,0.40021079778671265,0.40021079778671265
787,1.0,0.0010569622972980142,0.0010569622972980142,1e-04,0.8700000047683716,0.4003538489341736,0.4003538489341736
788,1.0,0.001055209431797266,0.001055209431797266,1e-04,0.8700000047683716,0.4002915620803833,0.4002915620803833
789,1.0,0.001053414773195982,0.001053414773195982,1e-04,0.8700000047683716,0.4002106189727783,0.4002106189727783
790,1.0,0.001051451894454658,0.001051451894454658,1e-04,0.8700000047683716,0.4000680148601532,0.4000680148601532
791,1.0,0.0010496109025552869,0.0010496109025552869,1e-04,0.8700000047683716,0.40001416206359863,0.40001416206359863
792,1.0,0.001048097270540893,0.001048097270540893,1e-04,0.8700000047683716,0.40025046467781067,0.40025046467781067
793,1.0,0.0010462278733029962,0.0010462278733029962,1e-04,0.8700000047683716,0.4003288745880127,0.4003288745880127
794,1.0,0.0010441649938002229,0.0010441649938002229,1e-04,0.8700000047683716,0.40055519342422485,0.40055519342422485
795,1.0,0.001042370917275548,0.001042370917275548,1e-04,0.8700000047683716,0.4005613327026367,0.4005613327026367
796,1.0,0.00104063143953681,0.00104063143953681,1e-04,0.8700000047683716,0.40071141719818115,0.40071141719818115
797,1.0,0.0010390609968453646,0.0010390609968453646,1e-04,0.8700000047683716,0.4007038176059723,0.4007038176059723
798,1.0,0.0010373936966061592,0.0010373936966061592,1e-04,0.8700000047683716,0.4009805917739868,0.4009805917739868
799,1.0,0.0010356255806982517,0.0010356255806982517,1e-04,0.8700000047683716,0.40108737349510193,0.40108737349510193
800,1.0,0.0010339206783100963,0.0010339206783100963,1e-04,0.8700000047683716,0.40128040313720703,0.40128040313720703
801,1.0,0.00103243556804955,0.00103243556804955,1e-04,0.8700000047683716,0.4013414680957794,0.4013414680957794
802,1.0,0.0010305268224328756,0.0010305268224328756,1e-04,0.8700000047683716,0.40156975388526917,0.40156975388526917
803,1.0,0.0010286883916705847,0.0010286883916705847,1e-04,0.8700000047683716,0.4017334282398224,0.4017334282398224
804,1.0,0.0010269281920045614,0.0010269281920045614,1e-04,0.8700000047683716,0.4020749032497406,0.4020749032497406
805,1.0,0.001024899072945118,0.001024899072945118,1e-04,0.8700000047683716,0.40226441621780396,0.40226441621780396
806,1.0,0.0010232268832623959,0.0010232268832623959,1e-04,0.8700000047683716,0.4025845229625702,0.4025845229625702
807,1.0,0.0010213350178673863,0.0010213350178673863,1e-04,0.8700000047683716,0.40274596214294434,0.40274596214294434
808,1.0,0.001019519753754139,0.001019519753754139,1e-04,0.8700000047683716,0.40285781025886536,0.40285781025886536
809,1.0,0.0010181278921663761,0.0010181278921663761,1e-04,0.8700000047683716,0.4030733108520508,0.4030733108520508
810,1.0,0.001016482012346387,0.001016482012346387,1e-04,0.8700000047683716,0.403319776058197,0.403319776058197
811,1.0,0.001014637527987361,0.001014637527987361,1e-04,0.8700000047683716,0.40353816747665405,0.40353816747665405
812,1.0,0.001012635650113225,0.001012635650113225,1e-04,0.8700000047683716,0.40369969606399536,0.40369969606399536
813,1.0,0.001010920270346105,0.001010920270346105,1e-04,0.8700000047683716,0.4038604497909546,0.4038604497909546
814,1.0,0.0010093969758599997,0.0010093969758599997,1e-04,0.8700000047683716,0.4040544629096985,0.4040544629096985
815,1.0,0.001007707673124969,0.001007707673124969,1e-04,0.8700000047683716,0.4044067859649658,0.4044067859649658
816,1.0,0.001006340142339468,0.001006340142339468,1e-04,0.8700000047683716,0.40446195006370544,0.40446195006370544
817,1.0,0.0010044368682429194,0.0010044368682429194,1e-04,0.8700000047683716,0.40466490387916565,0.40466490387916565
818,1.0,0.0010024490766227245,0.0010024490766227245,1e-04,0.8700000047683716,0.40467455983161926,0.40467455983161926
819,1.0,0.0010008823592215776,0.0010008823592215776,1e-04,0.8700000047683716,0.4048253893852234,0.4048253893852234
820,1.0,0.000999086769297719,0.000999086769297719,1e-04,0.8700000047683716,0.4049149751663208,0.4049149751663208
821,1.0,0.000997884664684534,0.000997884664684534,1e-04,0.8700000047683716,0.4050256013870239,0.4050256013870239
822,1.0,0.0009959152666851878,0.0009959152666851878,1e-04,0.8700000047683716,0.4053167998790741,0.4053167998790741
823,1.0,0.000994536792859435,0.000994536792859435,1e-04,0.8700000047683716,0.4053625762462616,0.4053625762462616
824,1.0,0.0009924264159053564,0.0009924264159053564,1e-04,0.8700000047683716,0.40567123889923096,0.40567123889923096
825,1.0,0.0009906025370582938,0.0009906025370582938,1e-04,0.8700000047683716,0.4058108627796173,0.4058108627796173
826,1.0,0.0009891188237816095,0.0009891188237816095,1e-04,0.8700000047683716,0.40599164366722107,0.40599164366722107
827,1.0,0.0009878287091851234,0.0009878287091851234,1e-04,0.8600000143051147,0.4063705503940582,0.4063705503940582
828,1.0,0.0009860818972811103,0.0009860818972811103,1e-04,0.8600000143051147,0.4067798852920532,0.4067798852920532
829,1.0,0.000984507380053401,0.000984507380053401,1e-04,0.8600000143051147,0.40694355964660645,0.40694355964660645
830,1.0,0.0009827874600887299,0.0009827874600887299,1e-04,0.8600000143051147,0.4072205424308777,0.4072205424308777
831,1.0,0.0009810137562453747,0.0009810137562453747,1e-04,0.8600000143051147,0.40756160020828247,0.40756160020828247
832,1.0,0.000979550532065332,0.000979550532065332,1e-04,0.8600000143051147,0.4079689681529999,0.4079689681529999
833,1.0,0.0009777045343071222,0.0009777045343071222,1e-04,0.8600000143051147,0.4084230065345764,0.4084230065345764
834,1.0,0.0009759679669514298,0.0009759679669514298,1e-04,0.8600000143051147,0.4089100956916809,0.4089100956916809
835,1.0,0.0009745215647853911,0.0009745215647853911,1e-04,0.8600000143051147,0.4089999794960022,0.4089999794960022
836,1.0,0.0009727439028210938,0.0009727439028210938,1e-04,0.8600000143051147,0.40913161635398865,0.40913161635398865
837,1.0,0.0009712619939818978,0.0009712619939818978,1e-04,0.8600000143051147,0.4093042016029358,0.4093042016029358
838,1.0,0.0009694639011286199,0.0009694639011286199,1e-04,0.8600000143051147,0.40948694944381714,0.40948694944381714
839,1.0,0.0009676961344666779,0.0009676961344666779,1e-04,0.8600000143051147,0.40964341163635254,0.40964341163635254
840,1.0,0.0009663974633440375,0.0009663974633440375,1e-04,0.8600000143051147,0.4099472165107727,0.4099472165107727
841,1.0,0.0009645362151786685,0.0009645362151786685,1e-04,0.8600000143051147,0.4100742042064667,0.4100742042064667
842,1.0,0.0009629688574932516,0.0009629688574932516,1e-04,0.8600000143051147,0.41039904952049255,0.41039904952049255
843,1.0,0.0009613771107979119,0.0009613771107979119,1e-04,0.8600000143051147,0.41063567996025085,0.41063567996025085
844,1.0,0.0009595371084287763,0.0009595371084287763,1e-04,0.8600000143051147,0.41092830896377563,0.41092830896377563
845,1.0,0.000958264630753547,0.000958264630753547,1e-04,0.8600000143051147,0.4109354317188263,0.4109354317188263
846,1.0,0.0009565667132847011,0.0009565667132847011,1e-04,0.8600000143051147,0.41100841760635376,0.41100841760635376
847,1.0,0.0009549524402245879,0.0009549524402245879,1e-04,0.8600000143051147,0.4109876751899719,0.4109876751899719
848,1.0,0.0009532278054393828,0.0009532278054393828,1e-04,0.8600000143051147,0.4109700322151184,0.4109700322151184
849,1.0,0.000951379828620702,0.000951379828620702,1e-04,0.8600000143051147,0.41147127747535706,0.41147127747535706
850,1.0,0.0009501122403889894,0.0009501122403889894,1e-04,0.8600000143051147,0.41147658228874207,0.41147658228874207
851,1.0,0.0009484171750955284,0.0009484171750955284,1e-04,0.8600000143051147,0.4117814600467682,0.4117814600467682
852,1.0,0.0009469194919802248,0.0009469194919802248,1e-04,0.8600000143051147,0.41188809275627136,0.41188809275627136
853,1.0,0.0009454707033000886,0.0009454707033000886,1e-04,0.8600000143051147,0.4122072458267212,0.4122072458267212
854,1.0,0.0009441684815101326,0.0009441684815101326,1e-04,0.8500000238418579,0.41234835982322693,0.41234835982322693
855,1.0,0.0009425046155229211,0.0009425046155229211,1e-04,0.8500000238418579,0.41252925992012024,0.41252925992012024
856,1.0,0.0009407629258930683,0.0009407629258930683,1e-04,0.8500000238418579,0.41229498386383057,0.41229498386383057
857,1.0,0.0009391906205564737,0.0009391906205564737,1e-04,0.8500000238418579,0.4119107127189636,0.4119107127189636
858,1.0,0.0009376502130180597,0.0009376502130180597,1e-04,0.8600000143051147,0.41173598170280457,0.41173598170280457
859,1.0,0.0009360372787341475,0.0009360372787341475,1e-04,0.8500000238418579,0.4118490219116211,0.4118490219116211
860,1.0,0.0009344543796032667,0.0009344543796032667,1e-04,0.8500000238418579,0.41220471262931824,0.41220471262931824
861,1.0,0.0009326800936833024,0.0009326800936833024,1e-04,0.8500000238418579,0.41240108013153076,0.41240108013153076
862,1.0,0.0009313212940469384,0.0009313212940469384,1e-04,0.8500000238418579,0.41261619329452515,0.41261619329452515
863,1.0,0.0009297034703195095,0.0009297034703195095,1e-04,0.8500000238418579,0.41291356086730957,0.41291356086730957
864,1.0,0.0009283286053687334,0.0009283286053687334,1e-04,0.8500000238418579,0.4130600094795227,0.4130600094795227
865,1.0,0.0009272271418012679,0.0009272271418012679,1e-04,0.8600000143051147,0.41292059421539307,0.41292059421539307
866,1.0,0.0009255257318727672,0.0009255257318727672,1e-04,0.8500000238418579,0.4131515622138977,0.4131515622138977
867,1.0,0.0009237389895133674,0.0009237389895133674,1e-04,0.8600000143051147,0.41306987404823303,0.41306987404823303
868,1.0,0.0009220618521794677,0.0009220618521794677,1e-04,0.8600000143051147,0.4127602279186249,0.4127602279186249
869,1.0,0.0009205967653542757,0.0009205967653542757,1e-04,0.8600000143051147,0.4129832088947296,0.4129832088947296
870,1.0,0.0009193744626827538,0.0009193744626827538,1e-04,0.8700000047683716,0.41285669803619385,0.41285669803619385
871,1.0,0.0009180611232295632,0.0009180611232295632,1e-04,0.8600000143051147,0.41302669048309326,0.41302669048309326
872,1.0,0.0009163685026578605,0.0009163685026578605,1e-04,0.8600000143051147,0.4133214056491852,0.4133214056491852
873,1.0,0.0009149566758424044,0.0009149566758424044,1e-04,0.8600000143051147,0.4136592149734497,0.4136592149734497
874,1.0,0.0009131192346103489,0.0009131192346103489,1e-04,0.8600000143051147,0.4137784242630005,0.4137784242630005
875,1.0,0.0009117004228755832,0.0009117004228755832,1e-04,0.8700000047683716,0.4133746325969696,0.4133746325969696
876,1.0,0.0009103600168600678,0.0009103600168600678,1e-04,0.8700000047683716,0.4133325517177582,0.4133325517177582
877,1.0,0.0009087715880014002,0.0009087715880014002,1e-04,0.8700000047683716,0.41308870911598206,0.41308870911598206
878,1.0,0.000907397479750216,0.000907397479750216,1e-04,0.8700000047683716,0.4132906198501587,0.4132906198501587
879,1.0,0.0009056731360033154,0.0009056731360033154,1e-04,0.8700000047683716,0.41346538066864014,0.41346538066864014
880,1.0,0.0009040830773301423,0.0009040830773301423,1e-04,0.8700000047683716,0.4134044647216797,0.4134044647216797
881,1.0,0.0009026237530633807,0.0009026237530633807,1e-04,0.8700000047683716,0.4134555160999298,0.4134555160999298
882,1.0,0.0009013785165734589,0.0009013785165734589,1e-04,0.8700000047683716,0.41394656896591187,0.41394656896591187
883,1.0,0.00090009905397892,0.00090009905397892,1e-04,0.8700000047683716,0.4139678478240967,0.4139678478240967
884,1.0,0.0008986262837424874,0.0008986262837424874,1e-04,0.8700000047683716,0.4137655198574066,0.4137655198574066
885,1.0,0.000897093559615314,0.000897093559615314,1e-04,0.8700000047683716,0.41345450282096863,0.41345450282096863
886,1.0,0.0008956697420217097,0.0008956697420217097,1e-04,0.8700000047683716,0.4134540855884552,0.4134540855884552
887,1.0,0.0008944321889430285,0.0008944321889430285,1e-04,0.8700000047683716,0.41363003849983215,0.41363003849983215
888,1.0,0.0008925807196646929,0.0008925807196646929,1e-04,0.8700000047683716,0.4140789806842804,0.4140789806842804
889,1.0,0.0008912225603125989,0.0008912225603125989,1e-04,0.8700000047683716,0.4142295718193054,0.4142295718193054
890,1.0,0.0008899357635527849,0.0008899357635527849,1e-04,0.8700000047683716,0.4144129157066345,0.4144129157066345
891,1.0,0.0008884473354555666,0.0008884473354555666,1e-04,0.8700000047683716,0.4143265187740326,0.4143265187740326
892,1.0,0.0008870207238942385,0.0008870207238942385,1e-04,0.8700000047683716,0.4141598641872406,0.4141598641872406
893,1.0,0.0008854037732817233,0.0008854037732817233,1e-04,0.8700000047683716,0.41448965668678284,0.41448965668678284
894,1.0,0.0008839863003231585,0.0008839863003231585,1e-04,0.8700000047683716,0.41468116641044617,0.41468116641044617
895,1.0,0.0008825496770441532,0.0008825496770441532,1e-04,0.8700000047683716,0.414635568857193,0.414635568857193
896,1.0,0.000881188316270709,0.000881188316270709,1e-04,0.8700000047683716,0.4150216281414032,0.4150216281414032
897,1.0,0.000879758910741657,0.000879758910741657,1e-04,0.8700000047683716,0.41518664360046387,0.41518664360046387
898,1.0,0.0008784871315583587,0.0008784871315583587,1e-04,0.8700000047683716,0.4153892993927002,0.4153892993927002
899,1.0,0.0008770786225795746,0.0008770786225795746,1e-04,0.8700000047683716,0.41527190804481506,0.41527190804481506
900,1.0,0.0008756846655160189,0.0008756846655160189,1e-04,0.8700000047683716,0.4153183698654175,0.4153183698654175
901,1.0,0.0008739872137084603,0.0008739872137084603,1e-04,0.8700000047683716,0.41571739315986633,0.41571739315986633
902,1.0,0.0008728312095627189,0.0008728312095627189,1e-04,0.8700000047683716,0.4160051643848419,0.4160051643848419
903,1.0,0.0008713150164112449,0.0008713150164112449,1e-04,0.8700000047683716,0.41591551899909973,0.41591551899909973
904,1.0,0.000869972980581224,0.000869972980581224,1e-04,0.8700000047683716,0.4163447618484497,0.4163447618484497
905,1.0,0.0008684338536113501,0.0008684338536113501,1e-04,0.8700000047683716,0.41638270020484924,0.41638270020484924
906,1.0,0.0008673040429130197,0.0008673040429130197,1e-04,0.8700000047683716,0.41688674688339233,0.41688674688339233
907,1.0,0.0008659029263071716,0.0008659029263071716,1e-04,0.8700000047683716,0.4170284569263458,0.4170284569263458
908,1.0,0.000864592264406383,0.000864592264406383,1e-04,0.8700000047683716,0.41731971502304077,0.41731971502304077
909,1.0,0.0008628910291008651,0.0008628910291008651,1e-04,0.8700000047683716,0.417419970035553,0.417419970035553
910,1.0,0.0008611672092229128,0.0008611672092229128,1e-04,0.8700000047683716,0.4177771508693695,0.4177771508693695
911,1.0,0.0008598375134170055,0.0008598375134170055,1e-04,0.8700000047683716,0.41771042346954346,0.41771042346954346
912,1.0,0.0008587707416154444,0.0008587707416154444,1e-04,0.8700000047683716,0.41794243454933167,0.41794243454933167
913,1.0,0.0008575698011554778,0.0008575698011554778,1e-04,0.8700000047683716,0.417949378490448,0.417949378490448
914,1.0,0.0008563067531213164,0.0008563067531213164,1e-04,0.8700000047683716,0.41791045665740967,0.41791045665740967
915,1.0,0.0008549707126803696,0.0008549707126803696,1e-04,0.8700000047683716,0.418094277381897,0.418094277381897
916,1.0,0.0008533817599527538,0.0008533817599527538,1e-04,0.8700000047683716,0.4182683229446411,0.4182683229446411
917,1.0,0.0008519102702848613,0.0008519102702848613,1e-04,0.8700000047683716,0.4183060824871063,0.4183060824871063
918,1.0,0.0008505897712893784,0.0008505897712893784,1e-04,0.8700000047683716,0.4182841181755066,0.4182841181755066
919,1.0,0.0008492813794873655,0.0008492813794873655,1e-04,0.8700000047683716,0.4186731278896332,0.4186731278896332
920,1.0,0.0008478098316118121,0.0008478098316118121,1e-04,0.8700000047683716,0.419153094291687,0.419153094291687
921,1.0,0.0008463873527944088,0.0008463873527944088,1e-04,0.8700000047683716,0.4190515875816345,0.4190515875816345
922,1.0,0.0008451384492218494,0.0008451384492218494,1e-04,0.8700000047683716,0.4193376302719116,0.4193376302719116
923,1.0,0.0008434565970674157,0.0008434565970674157,1e-04,0.8700000047683716,0.4194602966308594,0.4194602966308594
924,1.0,0.0008421044913120568,0.0008421044913120568,1e-04,0.8700000047683716,0.4196541905403137,0.4196541905403137
925,1.0,0.000840939930640161,0.000840939930640161,1e-04,0.8700000047683716,0.4195232093334198,0.4195232093334198
926,1.0,0.0008396243210881948,0.0008396243210881948,1e-04,0.8700000047683716,0.41988250613212585,0.41988250613212585
927,1.0,0.0008385614491999149,0.0008385614491999149,1e-04,0.8700000047683716,0.41993165016174316,0.41993165016174316
928,1.0,0.0008370672003366053,0.0008370672003366053,1e-04,0.8700000047683716,0.4200010597705841,0.4200010597705841
929,1.0,0.000835575454402715,0.000835575454402715,1e-04,0.8700000047683716,0.4203878343105316,0.4203878343105316
930,1.0,0.000834539532661438,0.000834539532661438,1e-04,0.8700000047683716,0.42051026225090027,0.42051026225090027
931,1.0,0.0008331433054991066,0.0008331433054991066,1e-04,0.8700000047683716,0.4205310344696045,0.4205310344696045
932,1.0,0.0008320359047502279,0.0008320359047502279,1e-04,0.8700000047683716,0.4203920364379883,0.4203920364379883
933,1.0,0.0008306607487611473,0.0008306607487611473,1e-04,0.8700000047683716,0.4205068349838257,0.4205068349838257
934,1.0,0.0008291617850773036,0.0008291617850773036,1e-04,0.8700000047683716,0.420358806848526,0.420358806848526
935,1.0,0.0008278281893581152,0.0008278281893581152,1e-04,0.8700000047683716,0.42048776149749756,0.42048776149749756
936,1.0,0.0008265617652796209,0.0008265617652796209,1e-04,0.8700000047683716,0.42076271772384644,0.42076271772384644
937,1.0,0.0008253558189608157,0.0008253558189608157,1e-04,0.8700000047683716,0.4208873510360718,0.4208873510360718
938,1.0,0.0008243965567089617,0.0008243965567089617,1e-04,0.8700000047683716,0.42143043875694275,0.42143043875694275
939,1.0,0.0008231537067331374,0.0008231537067331374,1e-04,0.8700000047683716,0.421556293964386,0.421556293964386
940,1.0,0.0008216359419748187,0.0008216359419748187,1e-04,0.8700000047683716,0.42173758149147034,0.42173758149147034
941,1.0,0.0008203402394428849,0.0008203402394428849,1e-04,0.8700000047683716,0.4217524826526642,0.4217524826526642
942,1.0,0.0008189613581635058,0.0008189613581635058,1e-04,0.8700000047683716,0.4222449064254761,0.4222449064254761
943,1.0,0.0008173172827810049,0.0008173172827810049,1e-04,0.8700000047683716,0.4225597083568573,0.4225597083568573
944,1.0,0.0008161020232364535,0.0008161020232364535,1e-04,0.8700000047683716,0.42254337668418884,0.42254337668418884
945,1.0,0.0008148697088472545,0.0008148697088472545,1e-04,0.8700000047683716,0.42271119356155396,0.42271119356155396
946,1.0,0.0008135992102324963,0.0008135992102324963,1e-04,0.8700000047683716,0.42304956912994385,0.42304956912994385
947,1.0,0.0008122763247229159,0.0008122763247229159,1e-04,0.8700000047683716,0.4238506257534027,0.4238506257534027
948,1.0,0.0008106870809569955,0.0008106870809569955,1e-04,0.8700000047683716,0.42433005571365356,0.42433005571365356
949,1.0,0.0008098988328129053,0.0008098988328129053,1e-04,0.8700000047683716,0.4247102737426758,0.4247102737426758
950,1.0,0.0008088427130132914,0.0008088427130132914,1e-04,0.8700000047683716,0.4248379170894623,0.4248379170894623
951,1.0,0.0008077225065790117,0.0008077225065790117,1e-04,0.8700000047683716,0.42490628361701965,0.42490628361701965
952,1.0,0.0008065272704698145,0.0008065272704698145,1e-04,0.8700000047683716,0.4245423376560211,0.4245423376560211
953,1.0,0.0008052331977523863,0.0008052331977523863,1e-04,0.8700000047683716,0.42452555894851685,0.42452555894851685
954,1.0,0.0008039530366659164,0.0008039530366659164,1e-04,0.8700000047683716,0.42474132776260376,0.42474132776260376
955,1.0,0.000802702852524817,0.000802702852524817,1e-04,0.8700000047683716,0.42507460713386536,0.42507460713386536
956,1.0,0.0008017050568014383,0.0008017050568014383,1e-04,0.8700000047683716,0.42553821206092834,0.42553821206092834
957,1.0,0.0008003429975360632,0.0008003429975360632,1e-04,0.8700000047683716,0.4258566200733185,0.4258566200733185
958,1.0,0.0007992918253876269,0.0007992918253876269,1e-04,0.8700000047683716,0.42631709575653076,0.42631709575653076
959,1.0,0.0007977416389621794,0.0007977416389621794,1e-04,0.8700000047683716,0.4267584979534149,0.4267584979534149
960,1.0,0.0007965631084516644,0.0007965631084516644,1e-04,0.8700000047683716,0.4271441698074341,0.4271441698074341
961,1.0,0.0007953451713547111,0.0007953451713547111,1e-04,0.8700000047683716,0.4271717369556427,0.4271717369556427
962,1.0,0.0007942554075270891,0.0007942554075270891,1e-04,0.8700000047683716,0.4274832010269165,0.4274832010269165
963,1.0,0.0007930483552627265,0.0007930483552627265,1e-04,0.8700000047683716,0.42769503593444824,0.42769503593444824
964,1.0,0.0007919588824734092,0.0007919588824734092,1e-04,0.8700000047683716,0.4280080795288086,0.4280080795288086
965,1.0,0.0007905920501798391,0.0007905920501798391,1e-04,0.8700000047683716,0.4283091723918915,0.4283091723918915
966,1.0,0.0007894132286310196,0.0007894132286310196,1e-04,0.8700000047683716,0.4283652603626251,0.4283652603626251
967,1.0,0.0007881452329456806,0.0007881452329456806,1e-04,0.8700000047683716,0.4284629821777344,0.4284629821777344
968,1.0,0.0007866760133765638,0.0007866760133765638,1e-04,0.8700000047683716,0.4285353422164917,0.4285353422164917
969,1.0,0.0007854533032514155,0.0007854533032514155,1e-04,0.8700000047683716,0.42852142453193665,0.42852142453193665
970,1.0,0.0007842485792934895,0.0007842485792934895,1e-04,0.8700000047683716,0.4286382794380188,0.4286382794380188
971,1.0,0.0007830390240997076,0.0007830390240997076,1e-04,0.8700000047683716,0.4288502633571625,0.4288502633571625
972,1.0,0.0007818948361091316,0.0007818948361091316,1e-04,0.8700000047683716,0.42915284633636475,0.42915284633636475
973,1.0,0.0007807051879353821,0.0007807051879353821,1e-04,0.8700000047683716,0.42931002378463745,0.42931002378463745
974,1.0,0.0007797551224939525,0.0007797551224939525,1e-04,0.8700000047683716,0.42918336391448975,0.42918336391448975
975,1.0,0.0007786144269630313,0.0007786144269630313,1e-04,0.8700000047683716,0.4289396405220032,0.4289396405220032
976,1.0,0.0007773534161970019,0.0007773534161970019,1e-04,0.8700000047683716,0.4288821518421173,0.4288821518421173
977,1.0,0.0007761472370475531,0.0007761472370475531,1e-04,0.8700000047683716,0.4288509488105774,0.4288509488105774
978,1.0,0.0007750673685222864,0.0007750673685222864,1e-04,0.8700000047683716,0.42893218994140625,0.42893218994140625
979,1.0,0.0007740159053355455,0.0007740159053355455,1e-04,0.8700000047683716,0.42905333638191223,0.42905333638191223
980,1.0,0.0007726491312496364,0.0007726491312496364,1e-04,0.8700000047683716,0.4291285574436188,0.4291285574436188
981,1.0,0.0007715143729001284,0.0007715143729001284,1e-04,0.8700000047683716,0.4293549656867981,0.4293549656867981
982,1.0,0.0007704275194555521,0.0007704275194555521,1e-04,0.8700000047683716,0.4293355941772461,0.4293355941772461
983,1.0,0.0007690570782870054,0.0007690570782870054,1e-04,0.8700000047683716,0.4295094311237335,0.4295094311237335
984,1.0,0.0007680284907110035,0.0007680284907110035,1e-04,0.8700000047683716,0.42930397391319275,0.42930397391319275
985,1.0,0.0007668840698897839,0.0007668840698897839,1e-04,0.8700000047683716,0.4294714629650116,0.4294714629650116
986,1.0,0.0007655423250980675,0.0007655423250980675,1e-04,0.8700000047683716,0.4295737147331238,0.4295737147331238
987,1.0,0.0007644707220606506,0.0007644707220606506,1e-04,0.8700000047683716,0.42985087633132935,0.42985087633132935
988,1.0,0.0007633166969753802,0.0007633166969753802,1e-04,0.8700000047683716,0.4307445287704468,0.4307445287704468
989,1.0,0.0007621392142027617,0.0007621392142027617,1e-04,0.8700000047683716,0.4313144385814667,0.4313144385814667
990,1.0,0.0007611496257595718,0.0007611496257595718,1e-04,0.8700000047683716,0.4318065345287323,0.4318065345287323
991,1.0,0.0007599282544106245,0.0007599282544106245,1e-04,0.8799999952316284,0.43239131569862366,0.43239131569862366
992,1.0,0.000758699607104063,0.000758699607104063,1e-04,0.8799999952316284,0.43264323472976685,0.43264323472976685
993,1.0,0.0007574755582027137,0.0007574755582027137,1e-04,0.8799999952316284,0.4327028691768646,0.4327028691768646
994,1.0,0.0007562217069789767,0.0007562217069789767,1e-04,0.8799999952316284,0.4325404763221741,0.4325404763221741
995,1.0,0.0007548807770945132,0.0007548807770945132,1e-04,0.8799999952316284,0.4328290820121765,0.4328290820121765
996,1.0,0.0007539064972661436,0.0007539064972661436,1e-04,0.8799999952316284,0.4330764710903168,0.4330764710903168
997,1.0,0.0007529326248914003,0.0007529326248914003,1e-04,0.8799999952316284,0.4335518777370453,0.4335518777370453
998,1.0,0.0007518553757108748,0.0007518553757108748,1e-04,0.8799999952316284,0.4336042106151581,0.4336042106151581
999,1.0,0.0007507444242946804,0.0007507444242946804,1e-04,0.8799999952316284,0.4338853061199188,0.4338853061199188
