epoch,accuracy,categorical_crossentropy,loss,lr,val_accuracy,val_categorical_crossentropy,val_loss
0,0.3580000102519989,1.5872230529785156,1.5872230529785156,0.001,0.8295555710792542,0.9117259979248047,0.9117259979248047
1,0.8159999847412109,0.8631476759910583,0.8631476759910583,0.001,0.816444456577301,0.6465713977813721,0.6465713977813721
2,0.7879999876022339,0.6458682417869568,0.6458682417869568,0.001,0.9091110825538635,0.5629884004592896,0.5629884004592896
3,0.921999990940094,0.5633550882339478,0.5633550882339478,0.001,0.9155555367469788,0.5258130431175232,0.5258130431175232
4,0.921999990940094,0.5315105319023132,0.5315105319023132,0.001,0.9164444208145142,0.463462233543396,0.463462233543396
5,0.9279999732971191,0.4555639624595642,0.4555639624595642,0.001,0.9153333306312561,0.38523682951927185,0.38523682951927185
6,0.9279999732971191,0.37020087242126465,0.37020087242126465,0.001,0.9148889183998108,0.3252169191837311,0.3252169191837311
7,0.9279999732971191,0.296231210231781,0.296231210231781,0.001,0.913777768611908,0.3133866786956787,0.3133866488933563
8,0.9279999732971191,0.2637512683868408,0.2637512683868408,0.001,0.9166666865348816,0.33918917179107666,0.33918917179107666
9,0.9259999990463257,0.28394824266433716,0.28394824266433716,0.001,0.9153333306312561,0.3436984121799469,0.3436984121799469
10,0.9259999990463257,0.28288471698760986,0.28288471698760986,0.001,0.9197777509689331,0.3176155686378479,0.3176155686378479
11,0.9259999990463257,0.25095415115356445,0.25095415115356445,0.001,0.9248889088630676,0.2880985140800476,0.2880985140800476
12,0.9340000152587891,0.2210598737001419,0.2210598737001419,0.001,0.9266666769981384,0.27652186155319214,0.27652186155319214
13,0.9419999718666077,0.20523667335510254,0.20523667335510254,0.001,0.9277777671813965,0.28271761536598206,0.28271761536598206
14,0.9399999976158142,0.20851291716098785,0.20851291716098785,0.001,0.9271110892295837,0.2946973145008087,0.2946973145008087
15,0.9440000057220459,0.208912655711174,0.208912655711174,0.001,0.9273333549499512,0.3026259243488312,0.3026259243488312
16,0.9459999799728394,0.215669646859169,0.215669646859169,0.001,0.929111123085022,0.30319803953170776,0.30319803953170776
17,0.9559999704360962,0.1990334540605545,0.1990334540605545,0.001,0.9308888912200928,0.2980791926383972,0.2980791926383972
18,0.9580000042915344,0.1898016780614853,0.1898016780614853,0.001,0.9322222471237183,0.2901318669319153,0.2901318669319153
19,0.9559999704360962,0.1826898157596588,0.1826898157596588,0.001,0.9331111311912537,0.2825518250465393,0.2825518250465393
20,0.9559999704360962,0.17155197262763977,0.17155197262763977,0.001,0.9344444274902344,0.2782357931137085,0.2782357931137085
21,0.9559999704360962,0.15996094048023224,0.15996094048023224,0.001,0.9346666932106018,0.2774668335914612,0.2774668335914612
22,0.9559999704360962,0.15225860476493835,0.15225860476493835,0.001,0.9344444274902344,0.27831318974494934,0.27831318974494934
23,0.9539999961853027,0.15081489086151123,0.15081489086151123,0.001,0.9359999895095825,0.27734073996543884,0.27734073996543884
24,0.9580000042915344,0.14109955728054047,0.14109955728054047,0.001,0.9380000233650208,0.2751501798629761,0.2751501798629761
25,0.9620000123977661,0.130281463265419,0.130281463265419,0.001,0.9371111392974854,0.2760969400405884,0.2760969400405884
26,0.9580000042915344,0.13398130238056183,0.13398130238056183,0.001,0.9348888993263245,0.28186190128326416,0.28186190128326416
27,0.9520000219345093,0.1325322389602661,0.1325322389602661,0.001,0.933555543422699,0.28847038745880127,0.28847038745880127
28,0.9580000042915344,0.1257541924715042,0.1257541924715042,0.001,0.9344444274902344,0.2925620377063751,0.2925620377063751
29,0.9679999947547913,0.12001948803663254,0.12001948803663254,0.001,0.9371111392974854,0.29469799995422363,0.29469799995422363
30,0.9639999866485596,0.11479853838682175,0.11479853838682175,0.001,0.9371111392974854,0.2980550229549408,0.2980550229549408
31,0.9620000123977661,0.11897040903568268,0.11897040903568268,0.001,0.937333345413208,0.3050864338874817,0.3050864338874817
32,0.9620000123977661,0.10853871703147888,0.10853871703147888,0.001,0.9366666674613953,0.31292399764060974,0.31292399764060974
33,0.9639999866485596,0.10645461082458496,0.10645461082458496,0.001,0.9366666674613953,0.3167458772659302,0.3167458772659302
34,0.9620000123977661,0.10772370547056198,0.10772370547056198,0.001,0.9377777576446533,0.3204485774040222,0.3204485774040222
35,0.972000002861023,0.09615140408277512,0.09615140408277512,0.001,0.9380000233650208,0.3273947238922119,0.3273947238922119
36,0.9700000286102295,0.09986235201358795,0.09986235201358795,0.001,0.9391111135482788,0.33505821228027344,0.33505821228027344
37,0.972000002861023,0.09613313525915146,0.09613313525915146,0.001,0.9388889074325562,0.34108853340148926,0.34108853340148926
38,0.9660000205039978,0.10472331941127777,0.10472331941127777,0.001,0.9380000233650208,0.3461528420448303,0.3461528420448303
39,0.9620000123977661,0.10230594128370285,0.10230594128370285,0.001,0.9364444613456726,0.3528440594673157,0.3528440594673157
40,0.9679999947547913,0.09394842386245728,0.09394842386245728,0.001,0.9357777833938599,0.3607926368713379,0.3607926368713379
41,0.9660000205039978,0.09439323097467422,0.09439323097467422,0.001,0.9357777833938599,0.3651566505432129,0.3651566505432129
42,0.9679999947547913,0.08945349603891373,0.08945349603891373,0.001,0.9355555772781372,0.36743074655532837,0.36743074655532837
43,0.972000002861023,0.09150887280702591,0.09150887280702591,0.001,0.9377777576446533,0.37190717458724976,0.37190717458724976
44,0.9660000205039978,0.09021197259426117,0.09021197259426117,0.001,0.9384444355964661,0.37545067071914673,0.37545067071914673
45,0.9660000205039978,0.09634879976511002,0.09634879976511002,0.001,0.9375555515289307,0.377659410238266,0.377659410238266
46,0.972000002861023,0.09149455279111862,0.09149455279111862,0.001,0.9346666932106018,0.3808211386203766,0.3808211386203766
47,0.9700000286102295,0.08354628831148148,0.08354628831148148,0.001,0.9331111311912537,0.384756863117218,0.384756863117218
48,0.9660000205039978,0.08722233772277832,0.08722233772277832,0.001,0.9346666932106018,0.3835442364215851,0.3835442364215851
49,0.9660000205039978,0.09070185571908951,0.09070185571908951,0.001,0.9366666674613953,0.38319534063339233,0.38319534063339233
50,0.9760000109672546,0.07885359972715378,0.07885359972715378,0.001,0.937333345413208,0.38668394088745117,0.38668394088745117
51,0.9679999947547913,0.08981474488973618,0.08981474488973618,0.001,0.9362221956253052,0.39154431223869324,0.39154431223869324
52,0.9760000109672546,0.08527011424303055,0.08527011424303055,0.001,0.9351111054420471,0.3981264531612396,0.3981264531612396
53,0.9679999947547913,0.08957009762525558,0.08957009762525558,0.001,0.9340000152587891,0.4048042297363281,0.4048042297363281
54,0.9739999771118164,0.0806746855378151,0.0806746855378151,0.001,0.9364444613456726,0.4070110321044922,0.4070110321044922
55,0.9760000109672546,0.08207817375659943,0.08207817375659943,0.001,0.9382222294807434,0.4105090796947479,0.4105090796947479
56,0.972000002861023,0.08831670880317688,0.08831670880317688,0.001,0.9377777576446533,0.41443607211112976,0.41443607211112976
57,0.9779999852180481,0.07480359822511673,0.07480359822511673,0.001,0.9384444355964661,0.41769447922706604,0.41769447922706604
58,0.972000002861023,0.0780424028635025,0.0780424028635025,0.001,0.9375555515289307,0.42124778032302856,0.42124778032302856
59,0.9779999852180481,0.0696515440940857,0.0696515440940857,0.001,0.9384444355964661,0.4233303368091583,0.4233303368091583
60,0.9739999771118164,0.07906047999858856,0.07906047999858856,0.001,0.9386666417121887,0.42691028118133545,0.42691028118133545
61,0.9760000109672546,0.0794108659029007,0.0794108659029007,0.001,0.9399999976158142,0.431871235370636,0.431871235370636
62,0.972000002861023,0.07728090137243271,0.07728090137243271,0.001,0.9397777915000916,0.43869444727897644,0.43869444727897644
63,0.9739999771118164,0.0723145604133606,0.0723145604133606,0.001,0.9362221956253052,0.45005422830581665,0.45005422830581665
64,0.9739999771118164,0.07804230600595474,0.07804230600595474,0.001,0.9371111392974854,0.45542091131210327,0.45542091131210327
65,0.9739999771118164,0.07485084235668182,0.07485084235668182,0.001,0.9399999976158142,0.4603954553604126,0.4603954553604126
66,0.9760000109672546,0.07824104279279709,0.07824104279279709,0.001,0.9402222037315369,0.4702815115451813,0.4702815115451813
67,0.9779999852180481,0.07478117197751999,0.07478117197751999,0.001,0.9399999976158142,0.4768383204936981,0.4768383204936981
68,0.9760000109672546,0.0778682678937912,0.0778682678937912,0.001,0.9359999895095825,0.4870304763317108,0.4870304763317108
69,0.9779999852180481,0.06645012646913528,0.06645012646913528,0.001,0.9386666417121887,0.4917822778224945,0.4917822778224945
70,0.9739999771118164,0.07636153697967529,0.07636153697967529,0.001,0.9397777915000916,0.4987797439098358,0.4987797439098358
71,0.9739999771118164,0.0694958046078682,0.0694958046078682,0.001,0.9395555257797241,0.5052704215049744,0.5052704215049744
72,0.984000027179718,0.07065355032682419,0.07065355032682419,0.001,0.937333345413208,0.5130994915962219,0.5130994915962219
73,0.9800000190734863,0.06186943128705025,0.06186943128705025,0.001,0.9377777576446533,0.518474280834198,0.518474280834198
74,0.9760000109672546,0.07371152937412262,0.07371152937412262,0.001,0.9399999976158142,0.5203595757484436,0.5203595757484436
75,0.9760000109672546,0.0679580494761467,0.0679580494761467,0.0005,0.9399999976158142,0.5220188498497009,0.5220188498497009
76,0.9800000190734863,0.0650632232427597,0.0650632232427597,0.0005,0.9399999976158142,0.5229663848876953,0.5229663848876953
77,0.9819999933242798,0.05588862672448158,0.05588862672448158,0.0005,0.9393333196640015,0.5250352621078491,0.5250352621078491
78,0.9779999852180481,0.06439894437789917,0.06439894437789917,0.0005,0.9386666417121887,0.5270348787307739,0.5270348787307739
79,0.9760000109672546,0.06320632249116898,0.06320632249116898,0.0005,0.9388889074325562,0.5270695090293884,0.5270695090293884
80,0.9779999852180481,0.06762243807315826,0.06762243807315826,0.0005,0.9397777915000916,0.5256143808364868,0.5256143808364868
81,0.9739999771118164,0.0654749795794487,0.0654749795794487,0.0005,0.9391111135482788,0.5252546668052673,0.5252546668052673
82,0.972000002861023,0.06483721733093262,0.06483721733093262,0.0005,0.9388889074325562,0.5248165726661682,0.5248165726661682
83,0.9779999852180481,0.0669092983007431,0.0669092983007431,0.0005,0.937333345413208,0.5262361168861389,0.5262361168861389
84,0.9760000109672546,0.06282179057598114,0.06282179057598114,0.0005,0.9375555515289307,0.5273199677467346,0.5273199677467346
85,0.9779999852180481,0.06064672768115997,0.06064672768115997,0.0005,0.9393333196640015,0.5286983251571655,0.5286983251571655
86,0.9819999933242798,0.05598217993974686,0.05598217993974686,0.0005,0.9402222037315369,0.5314614772796631,0.5314614772796631
87,0.9739999771118164,0.06244613602757454,0.06244613602757454,0.0005,0.9404444694519043,0.5361635684967041,0.5361635684967041
88,0.9760000109672546,0.06724154204130173,0.06724154204130173,0.0005,0.9399999976158142,0.5414091944694519,0.5414091944694519
89,0.9739999771118164,0.06575985997915268,0.06575985997915268,0.0005,0.9397777915000916,0.5472434163093567,0.5472434163093567
90,0.9779999852180481,0.05970386415719986,0.05970386415719986,0.0005,0.9395555257797241,0.5530261993408203,0.5530261993408203
91,0.9819999933242798,0.05928345024585724,0.05928345024585724,0.0005,0.9395555257797241,0.5577454566955566,0.5577454566955566
92,0.9800000190734863,0.049044057726860046,0.049044057726860046,0.0005,0.9388889074325562,0.563367486000061,0.563367486000061
93,0.9819999933242798,0.05581405758857727,0.05581405758857727,0.0005,0.9384444355964661,0.5696141123771667,0.5696141123771667
94,0.9800000190734863,0.05501887574791908,0.05501887574791908,0.0005,0.9388889074325562,0.5747812390327454,0.5747812390327454
95,0.9819999933242798,0.05264974385499954,0.05264974385499954,0.0005,0.9386666417121887,0.5802929401397705,0.5802929401397705
96,0.9800000190734863,0.06593240797519684,0.06593240797519684,0.0005,0.9386666417121887,0.5846278667449951,0.5846278667449951
97,0.9739999771118164,0.0665934607386589,0.0665934607386589,0.0005,0.9382222294807434,0.5876412987709045,0.5876412987709045
98,0.9800000190734863,0.05794479325413704,0.05794479325413704,0.0005,0.9362221956253052,0.5919821858406067,0.5919821858406067
99,0.9760000109672546,0.07117310911417007,0.07117310911417007,0.0005,0.9340000152587891,0.5951273441314697,0.5951273441314697
100,0.9700000286102295,0.06657028943300247,0.06657028943300247,0.0005,0.937333345413208,0.5933974385261536,0.5933974385261536
101,0.9739999771118164,0.07235245406627655,0.07235245406627655,0.0005,0.9388889074325562,0.5950543880462646,0.5950543880462646
102,0.9819999933242798,0.05784764140844345,0.05784764140844345,0.0005,0.9386666417121887,0.5951600670814514,0.5951600670814514
103,0.9760000109672546,0.06748542189598083,0.06748542189598083,0.0005,0.9391111135482788,0.5969571471214294,0.5969571471214294
104,0.972000002861023,0.06600851565599442,0.06600851565599442,0.0005,0.9388889074325562,0.5981050133705139,0.5981050133705139
105,0.9800000190734863,0.05821974575519562,0.05821974575519562,0.0005,0.9364444613456726,0.5994240641593933,0.5994240641593933
106,0.9739999771118164,0.0658952072262764,0.0658952072262764,0.0005,0.9375555515289307,0.5981117486953735,0.5981117486953735
107,0.9800000190734863,0.054224081337451935,0.054224081337451935,0.0005,0.9377777576446533,0.5958185195922852,0.5958185195922852
108,0.9760000109672546,0.05732627213001251,0.05732627213001251,0.0005,0.9386666417121887,0.5914290547370911,0.5914290547370911
109,0.9819999933242798,0.056999266147613525,0.056999266147613525,0.0005,0.9362221956253052,0.5887189507484436,0.5887189507484436
110,0.9779999852180481,0.05884711444377899,0.05884711444377899,0.0005,0.9353333115577698,0.5874075293540955,0.5874075293540955
111,0.9739999771118164,0.06410636752843857,0.06410636752843857,0.0005,0.9362221956253052,0.5835348963737488,0.5835348963737488
112,0.9779999852180481,0.052367426455020905,0.052367426455020905,0.0005,0.9388889074325562,0.5815618634223938,0.5815618634223938
113,0.9779999852180481,0.060079220682382584,0.060079220682382584,0.0005,0.9395555257797241,0.5829038619995117,0.5829038619995117
114,0.9800000190734863,0.054893553256988525,0.054893553256988525,0.0005,0.9391111135482788,0.5855793952941895,0.5855793952941895
115,0.9800000190734863,0.060603730380535126,0.060603730380535126,0.0005,0.9371111392974854,0.5900760889053345,0.5900760889053345
116,0.9779999852180481,0.05679523944854736,0.05679523944854736,0.0005,0.9366666674613953,0.594925045967102,0.594925045967102
117,0.984000027179718,0.05291500687599182,0.05291500687599182,0.0005,0.9371111392974854,0.5980342626571655,0.5980342626571655
118,0.9760000109672546,0.05903800576925278,0.05903800576925278,0.0005,0.9386666417121887,0.6002838015556335,0.6002838015556335
119,0.9779999852180481,0.05048496648669243,0.05048496648669243,0.0005,0.937333345413208,0.6043088436126709,0.6043088436126709
120,0.9739999771118164,0.06583033502101898,0.06583033502101898,0.0005,0.9366666674613953,0.6094058156013489,0.6094058156013489
121,0.9800000190734863,0.051882971078157425,0.051882971078157425,0.0005,0.9340000152587891,0.6167247891426086,0.6167247891426086
122,0.9779999852180481,0.054239362478256226,0.054239362478256226,0.0005,0.9324444532394409,0.6243513822555542,0.6243513822555542
123,0.9779999852180481,0.05357053875923157,0.05357053875923157,0.0005,0.9317777752876282,0.6280006170272827,0.6280006170272827
124,0.9879999756813049,0.041112612932920456,0.041112612932920456,0.0005,0.9355555772781372,0.6302840709686279,0.6302840709686279
125,0.9860000014305115,0.05254480615258217,0.05254480615258217,0.00025,0.9364444613456726,0.6326685547828674,0.6326685547828674
126,0.9800000190734863,0.046586889773607254,0.046586889773607254,0.00025,0.9375555515289307,0.6351678371429443,0.6351678371429443
127,0.9819999933242798,0.06335346400737762,0.06335346400737762,0.00025,0.9364444613456726,0.6376817226409912,0.6376817226409912
128,0.9800000190734863,0.0544767752289772,0.0544767752289772,0.00025,0.9362221956253052,0.6416189074516296,0.6416189074516296
129,0.9819999933242798,0.0547124408185482,0.0547124408185482,0.00025,0.9371111392974854,0.6434370875358582,0.6434370875358582
130,0.9819999933242798,0.04509684070944786,0.04509684070944786,0.00025,0.9380000233650208,0.6447634100914001,0.6447634100914001
131,0.9819999933242798,0.03970439359545708,0.03970439359545708,0.00025,0.9391111135482788,0.6467151641845703,0.6467151641845703
132,0.9800000190734863,0.05714938044548035,0.05714938044548035,0.00025,0.9393333196640015,0.6483561992645264,0.6483561992645264
133,0.9800000190734863,0.04903755336999893,0.04903755336999893,0.00025,0.9399999976158142,0.6495791673660278,0.6495791673660278
134,0.9819999933242798,0.05632588639855385,0.05632588639855385,0.00025,0.9397777915000916,0.6501381993293762,0.6501381993293762
135,0.9760000109672546,0.05640725418925285,0.05640725418925285,0.00025,0.9384444355964661,0.6508057713508606,0.6508057713508606
136,0.9819999933242798,0.04785509407520294,0.04785509407520294,0.00025,0.937333345413208,0.6525976657867432,0.6525976657867432
137,0.9819999933242798,0.055463481694459915,0.055463481694459915,0.00025,0.9362221956253052,0.6533143520355225,0.6533143520355225
138,0.9779999852180481,0.05943398177623749,0.05943398177623749,0.00025,0.9364444613456726,0.6527108550071716,0.6527108550071716
139,0.9819999933242798,0.052656661719083786,0.052656661719083786,0.00025,0.9375555515289307,0.6533821225166321,0.6533821225166321
140,0.9800000190734863,0.050493426620960236,0.050493426620960236,0.00025,0.937333345413208,0.6541358828544617,0.6541358828544617
141,0.9819999933242798,0.049353547394275665,0.049353547394275665,0.00025,0.9375555515289307,0.6550048589706421,0.6550048589706421
142,0.9800000190734863,0.05390183627605438,0.05390183627605438,0.00025,0.9353333115577698,0.6573488116264343,0.6573488116264343
143,0.9900000095367432,0.040792644023895264,0.040792644023895264,0.00025,0.933555543422699,0.6595812439918518,0.6595812439918518
144,0.9760000109672546,0.0526592917740345,0.0526592917740345,0.00025,0.9331111311912537,0.6609389781951904,0.6609389781951904
145,0.9800000190734863,0.0574909970164299,0.0574909970164299,0.00025,0.9333333373069763,0.6632146239280701,0.6632146239280701
146,0.984000027179718,0.04744076356291771,0.04744076356291771,0.00025,0.9326666593551636,0.6647698879241943,0.6647698879241943
147,0.9779999852180481,0.05169115960597992,0.05169115960597992,0.00025,0.9333333373069763,0.6660251617431641,0.6660251617431641
148,0.9860000014305115,0.03734536096453667,0.03734536096453667,0.00025,0.9355555772781372,0.6668522357940674,0.6668522357940674
149,0.984000027179718,0.0461263582110405,0.0461263582110405,0.00025,0.9357777833938599,0.6682370901107788,0.6682370901107788
150,0.9819999933242798,0.04589811712503433,0.04589811712503433,0.00025,0.9362221956253052,0.6691266894340515,0.6691266894340515
151,0.9800000190734863,0.046819232404232025,0.046819232404232025,0.00025,0.9362221956253052,0.6712715029716492,0.6712715029716492
152,0.984000027179718,0.04957982525229454,0.04957982525229454,0.00025,0.9366666674613953,0.672789454460144,0.672789454460144
153,0.9819999933242798,0.053598854690790176,0.053598854690790176,0.00025,0.9371111392974854,0.6742613315582275,0.6742613315582275
154,0.9819999933242798,0.05260921269655228,0.05260921269655228,0.00025,0.9377777576446533,0.6756280064582825,0.6756280064582825
155,0.9779999852180481,0.06270677596330643,0.06270677596330643,0.00025,0.9380000233650208,0.6768060326576233,0.6768060326576233
156,0.9819999933242798,0.04886039346456528,0.04886039346456528,0.00025,0.9380000233650208,0.6780242323875427,0.6780242323875427
157,0.9900000095367432,0.0427611842751503,0.0427611842751503,0.00025,0.9371111392974854,0.6807175278663635,0.6807175278663635
158,0.9860000014305115,0.04621455445885658,0.04621455445885658,0.00025,0.9351111054420471,0.6844809651374817,0.6844809651374817
159,0.9860000014305115,0.04143679887056351,0.04143679887056351,0.00025,0.9346666932106018,0.6877171993255615,0.6877171993255615
160,0.984000027179718,0.047896239906549454,0.047896239906549454,0.00025,0.9348888993263245,0.6874552965164185,0.6874552965164185
161,0.9800000190734863,0.05097420886158943,0.05097420886158943,0.00025,0.9371111392974854,0.6870661973953247,0.6870661973953247
162,0.9800000190734863,0.04687662795186043,0.04687662795186043,0.00025,0.9371111392974854,0.6887609958648682,0.6887609958648682
163,0.9819999933242798,0.049528203904628754,0.049528203904628754,0.00025,0.9359999895095825,0.6909784078598022,0.6909784078598022
164,0.984000027179718,0.04967612773180008,0.04967612773180008,0.00025,0.9342222213745117,0.6942906379699707,0.6942906379699707
165,0.984000027179718,0.0435667522251606,0.0435667522251606,0.00025,0.9340000152587891,0.6974440217018127,0.6974440217018127
166,0.984000027179718,0.04931243509054184,0.04931243509054184,0.00025,0.9328888654708862,0.699714183807373,0.699714183807373
167,0.9819999933242798,0.0464191660284996,0.0464191660284996,0.00025,0.9319999814033508,0.7007143497467041,0.7007143497467041
168,0.9819999933242798,0.04574131593108177,0.04574131593108177,0.00025,0.9333333373069763,0.7023824453353882,0.7023824453353882
169,0.9860000014305115,0.04734072834253311,0.04734072834253311,0.00025,0.933555543422699,0.7036506533622742,0.7036506533622742
170,0.9779999852180481,0.04800053685903549,0.04800053685903549,0.00025,0.9359999895095825,0.7050983309745789,0.7050983309745789
171,0.9779999852180481,0.048711441457271576,0.048711441457271576,0.00025,0.9353333115577698,0.7067520618438721,0.7067520618438721
172,0.9819999933242798,0.05093848705291748,0.05093848705291748,0.00025,0.9340000152587891,0.7083383798599243,0.7083383798599243
173,0.9900000095367432,0.04144592955708504,0.04144592955708504,0.00025,0.9348888993263245,0.7106704711914062,0.7106704711914062
174,0.9860000014305115,0.04113537073135376,0.04113537073135376,0.00025,0.9342222213745117,0.7133610844612122,0.7133610844612122
175,0.9819999933242798,0.0459507592022419,0.0459507592022419,0.000125,0.9331111311912537,0.7150042057037354,0.7150042057037354
176,0.984000027179718,0.04816288501024246,0.04816288501024246,0.000125,0.9337777495384216,0.7151719927787781,0.7151719927787781
177,0.9819999933242798,0.05429564416408539,0.05429564416408539,0.000125,0.9353333115577698,0.7149388194084167,0.7149388194084167
178,0.9860000014305115,0.04297807812690735,0.04297807812690735,0.000125,0.9362221956253052,0.7145881056785583,0.7145881056785583
179,0.984000027179718,0.05054093152284622,0.05054093152284622,0.000125,0.937333345413208,0.7148469090461731,0.7148469090461731
180,0.984000027179718,0.04501865431666374,0.04501865431666374,0.000125,0.937333345413208,0.7155563235282898,0.7155563235282898
181,0.9819999933242798,0.044737063348293304,0.044737063348293304,0.000125,0.9375555515289307,0.7169557809829712,0.7169557809829712
182,0.9779999852180481,0.05015706270933151,0.05015706270933151,0.000125,0.9359999895095825,0.7187693119049072,0.7187693119049072
183,0.984000027179718,0.04468389227986336,0.04468389227986336,0.000125,0.9346666932106018,0.7208086252212524,0.7208086252212524
184,0.984000027179718,0.04542164131999016,0.04542164131999016,0.000125,0.9337777495384216,0.7231349945068359,0.7231349945068359
185,0.9879999756813049,0.035014986991882324,0.035014986991882324,0.000125,0.933555543422699,0.7253050804138184,0.7253050804138184
186,0.9819999933242798,0.053031083196401596,0.053031083196401596,0.000125,0.9340000152587891,0.7263373136520386,0.7263373136520386
187,0.9819999933242798,0.05538644641637802,0.05538644641637802,0.000125,0.9342222213745117,0.7263755202293396,0.7263755202293396
188,0.9819999933242798,0.049089133739471436,0.049089133739471436,0.000125,0.933555543422699,0.7268710732460022,0.7268710732460022
189,0.9800000190734863,0.043905552476644516,0.043905552476644516,0.000125,0.9333333373069763,0.7270200252532959,0.7270200252532959
190,0.9900000095367432,0.03221283107995987,0.03221283107995987,0.000125,0.933555543422699,0.7276216149330139,0.7276216149330139
191,0.9800000190734863,0.03936067968606949,0.03936067968606949,0.000125,0.9337777495384216,0.7284324169158936,0.7284324169158936
192,0.9819999933242798,0.03927619382739067,0.03927619382739067,0.000125,0.9340000152587891,0.7293379902839661,0.7293379902839661
193,0.9779999852180481,0.05983928591012955,0.05983928591012955,0.000125,0.933555543422699,0.7319754362106323,0.7319754362106323
194,0.9819999933242798,0.04870064929127693,0.04870064929127693,0.000125,0.9328888654708862,0.7342700958251953,0.7342700958251953
195,0.9779999852180481,0.04978563264012337,0.04978563264012337,0.000125,0.9337777495384216,0.7363584041595459,0.7363584041595459
196,0.9819999933242798,0.042810648679733276,0.042810648679733276,0.000125,0.9342222213745117,0.7385214567184448,0.7385214567184448
197,0.984000027179718,0.044089425355196,0.044089425355196,0.000125,0.9342222213745117,0.7404646873474121,0.7404646873474121
198,0.9879999756813049,0.039368581026792526,0.039368581026792526,0.000125,0.9340000152587891,0.7416146397590637,0.7416146397590637
199,0.9819999933242798,0.04950693994760513,0.04950693994760513,0.000125,0.9342222213745117,0.7408649921417236,0.7408649921417236
200,0.9860000014305115,0.041534386575222015,0.041534386575222015,0.000125,0.9344444274902344,0.740463137626648,0.740463137626648
201,0.9819999933242798,0.047395914793014526,0.047395914793014526,0.000125,0.9342222213745117,0.7389659285545349,0.7389659285545349
202,0.9860000014305115,0.04283282905817032,0.04283282905817032,0.000125,0.9348888993263245,0.7373222708702087,0.7373222708702087
203,0.9819999933242798,0.04116664454340935,0.04116664454340935,0.000125,0.9355555772781372,0.7370851039886475,0.7370851039886475
204,0.9819999933242798,0.04263552650809288,0.04263552650809288,0.000125,0.9359999895095825,0.7368817925453186,0.7368817925453186
205,0.9800000190734863,0.037850894033908844,0.037850894033908844,0.000125,0.9355555772781372,0.7369330525398254,0.7369330525398254
206,0.984000027179718,0.04310617968440056,0.04310617968440056,0.000125,0.9355555772781372,0.7379469275474548,0.7379469275474548
207,0.984000027179718,0.04796905443072319,0.04796905443072319,0.000125,0.9351111054420471,0.7390158176422119,0.7390158176422119
208,0.984000027179718,0.040345899760723114,0.040345899760723114,0.000125,0.9346666932106018,0.7403406500816345,0.7403406500816345
209,0.9819999933242798,0.052509110420942307,0.052509110420942307,0.000125,0.9346666932106018,0.7415164709091187,0.7415164709091187
210,0.9860000014305115,0.040740255266427994,0.040740255266427994,0.000125,0.9342222213745117,0.7442814707756042,0.7442814707756042
211,0.9779999852180481,0.053600527346134186,0.053600527346134186,0.000125,0.9340000152587891,0.7463430762290955,0.7463430762290955
212,0.9940000176429749,0.03838203102350235,0.03838203102350235,0.000125,0.9344444274902344,0.747632622718811,0.747632622718811
213,0.9819999933242798,0.041933976113796234,0.041933976113796234,0.000125,0.9359999895095825,0.7486154437065125,0.7486154437065125
214,0.9860000014305115,0.044015005230903625,0.044015005230903625,0.000125,0.9371111392974854,0.7502849102020264,0.7502849102020264
215,0.9900000095367432,0.030095569789409637,0.030095569789409637,0.000125,0.937333345413208,0.7520759105682373,0.7520759105682373
216,0.9800000190734863,0.04721296578645706,0.04721296578645706,0.000125,0.937333345413208,0.7540369629859924,0.7540369629859924
217,0.984000027179718,0.04394971951842308,0.04394971951842308,0.000125,0.9362221956253052,0.7563093304634094,0.7563093304634094
218,0.9819999933242798,0.04521160572767258,0.04521160572767258,0.000125,0.9357777833938599,0.7589199542999268,0.7589199542999268
219,0.984000027179718,0.03856220096349716,0.03856220096349716,0.000125,0.9344444274902344,0.7626285552978516,0.7626285552978516
220,0.9860000014305115,0.03882807493209839,0.03882807493209839,0.000125,0.9331111311912537,0.7666661739349365,0.7666661739349365
221,0.9860000014305115,0.049537599086761475,0.049537599086761475,0.000125,0.9326666593551636,0.7688450813293457,0.7688450813293457
222,0.9879999756813049,0.047065962105989456,0.047065962105989456,0.000125,0.9333333373069763,0.7685253620147705,0.7685253620147705
223,0.9860000014305115,0.03902819752693176,0.03902819752693176,0.000125,0.9353333115577698,0.7678466439247131,0.7678466439247131
224,0.9879999756813049,0.03436223417520523,0.03436223417520523,0.000125,0.9375555515289307,0.7684047818183899,0.7684047818183899
225,0.984000027179718,0.038871005177497864,0.038871005177497864,1e-04,0.937333345413208,0.7693085670471191,0.7693085670471191
226,0.9860000014305115,0.03844480589032173,0.03844480589032173,1e-04,0.9375555515289307,0.7704154253005981,0.7704154253005981
227,0.9800000190734863,0.03866075351834297,0.03866075351834297,1e-04,0.937333345413208,0.7715848684310913,0.7715848684310913
228,0.984000027179718,0.04052827134728432,0.04052827134728432,1e-04,0.9357777833938599,0.7733761668205261,0.7733761668205261
229,0.9800000190734863,0.0421953946352005,0.0421953946352005,1e-04,0.9351111054420471,0.775640606880188,0.775640606880188
230,0.984000027179718,0.04610217362642288,0.04610217362642288,1e-04,0.9333333373069763,0.7784010171890259,0.7784010171890259
231,0.984000027179718,0.04035152867436409,0.04035152867436409,1e-04,0.9326666593551636,0.7803793549537659,0.7803793549537659
232,0.9860000014305115,0.04183424636721611,0.04183424636721611,1e-04,0.9331111311912537,0.7813957333564758,0.7813957333564758
233,0.984000027179718,0.03996485471725464,0.03996485471725464,1e-04,0.933555543422699,0.7810083627700806,0.7810083627700806
234,0.9879999756813049,0.04036291688680649,0.04036291688680649,1e-04,0.9348888993263245,0.7803547978401184,0.7803547978401184
235,0.9800000190734863,0.046139560639858246,0.046139560639858246,1e-04,0.9357777833938599,0.7805490493774414,0.7805490493774414
236,0.9800000190734863,0.04065331071615219,0.04065331071615219,1e-04,0.9371111392974854,0.7813513875007629,0.7813513875007629
237,0.9860000014305115,0.03981349617242813,0.03981349617242813,1e-04,0.9375555515289307,0.7825562357902527,0.7825562357902527
238,0.9879999756813049,0.03717467188835144,0.03717467188835144,1e-04,0.9368888735771179,0.7838267087936401,0.7838267087936401
239,0.9860000014305115,0.0317465215921402,0.0317465215921402,1e-04,0.9366666674613953,0.7848734855651855,0.7848734855651855
240,0.9879999756813049,0.03436407446861267,0.03436407446861267,1e-04,0.9359999895095825,0.7864144444465637,0.7864144444465637
241,0.9819999933242798,0.043291475623846054,0.043291475623846054,1e-04,0.9340000152587891,0.788902759552002,0.788902759552002
242,0.9860000014305115,0.0402650311589241,0.0402650311589241,1e-04,0.9333333373069763,0.7913362383842468,0.7913362383842468
243,0.9819999933242798,0.03994341939687729,0.03994341939687729,1e-04,0.9324444532394409,0.7936882376670837,0.7936882376670837
244,0.9860000014305115,0.04672880843281746,0.04672880843281746,1e-04,0.9311110973358154,0.7954323887825012,0.7954323887825012
245,0.984000027179718,0.03500496223568916,0.03500496223568916,1e-04,0.93022221326828,0.796144425868988,0.796144425868988
246,0.9860000014305115,0.03770754113793373,0.03770754113793373,1e-04,0.93022221326828,0.7963453531265259,0.7963453531265259
247,0.9879999756813049,0.0314846932888031,0.0314846932888031,1e-04,0.9315555691719055,0.7958923578262329,0.7958923578262329
248,0.9819999933242798,0.04755225032567978,0.04755225032567978,1e-04,0.9322222471237183,0.7955222725868225,0.7955222725868225
249,0.9860000014305115,0.04519730806350708,0.04519730806350708,1e-04,0.9319999814033508,0.795694887638092,0.795694887638092
250,0.9800000190734863,0.04593285545706749,0.04593285545706749,1e-04,0.9326666593551636,0.7956045866012573,0.7956045866012573
251,0.9900000095367432,0.029835756868124008,0.029835756868124008,1e-04,0.9333333373069763,0.7956307530403137,0.7956307530403137
252,0.9860000014305115,0.04453466087579727,0.04453466087579727,1e-04,0.9328888654708862,0.7961356043815613,0.7961356043815613
253,0.9800000190734863,0.0488467738032341,0.0488467738032341,1e-04,0.9333333373069763,0.797027587890625,0.797027587890625
254,0.9900000095367432,0.033754896372556686,0.033754896372556686,1e-04,0.9326666593551636,0.7983690500259399,0.7983690500259399
255,0.9860000014305115,0.039145879447460175,0.039145879447460175,1e-04,0.9324444532394409,0.79986971616745,0.79986971616745
256,0.9860000014305115,0.042847491800785065,0.042847491800785065,1e-04,0.9322222471237183,0.8012664318084717,0.8012664318084717
257,0.9779999852180481,0.04296441748738289,0.04296441748738289,1e-04,0.9331111311912537,0.7999558448791504,0.7999558448791504
258,0.984000027179718,0.039224956184625626,0.039224956184625626,1e-04,0.9346666932106018,0.798368513584137,0.798368513584137
259,0.984000027179718,0.038820069283246994,0.038820069283246994,1e-04,0.9355555772781372,0.7971637845039368,0.7971637845039368
260,0.9819999933242798,0.03267022594809532,0.03267022594809532,1e-04,0.9359999895095825,0.797173023223877,0.797173023223877
261,0.9879999756813049,0.03618382662534714,0.03618382662534714,1e-04,0.9359999895095825,0.797301173210144,0.797301173210144
262,0.984000027179718,0.03873973712325096,0.03873973712325096,1e-04,0.9355555772781372,0.7983482480049133,0.7983482480049133
263,0.9800000190734863,0.055038392543792725,0.055038392543792725,1e-04,0.9344444274902344,0.8005077838897705,0.8005077838897705
264,0.9819999933242798,0.04104287177324295,0.04104287177324295,1e-04,0.9331111311912537,0.8018953204154968,0.8018953204154968
265,0.9860000014305115,0.04549508914351463,0.04549508914351463,1e-04,0.9315555691719055,0.8031705617904663,0.8031705617904663
266,0.984000027179718,0.043444935232400894,0.043444935232400894,1e-04,0.9317777752876282,0.8025267124176025,0.8025267124176025
267,0.984000027179718,0.04239480569958687,0.04239480569958687,1e-04,0.9337777495384216,0.8007441759109497,0.8007441759109497
268,0.9819999933242798,0.04491334408521652,0.04491334408521652,1e-04,0.9340000152587891,0.8002539873123169,0.8002539873123169
269,0.9779999852180481,0.04251314699649811,0.04251314699649811,1e-04,0.9348888993263245,0.800608217716217,0.800608217716217
270,0.9900000095367432,0.0371272973716259,0.0371272973716259,1e-04,0.9348888993263245,0.8016265034675598,0.8016265034675598
271,0.9860000014305115,0.03676106035709381,0.03676106035709381,1e-04,0.9348888993263245,0.8033719062805176,0.8033719062805176
272,0.9860000014305115,0.04283623397350311,0.04283623397350311,1e-04,0.933555543422699,0.8054343461990356,0.8054343461990356
273,0.984000027179718,0.03346382826566696,0.03346382826566696,1e-04,0.933555543422699,0.8077524900436401,0.8077524900436401
274,0.9800000190734863,0.04635544866323471,0.04635544866323471,1e-04,0.9322222471237183,0.8107073307037354,0.8107073307037354
275,0.9800000190734863,0.04694780334830284,0.04694780334830284,1e-04,0.9295555353164673,0.8141381740570068,0.8141381740570068
276,0.9819999933242798,0.03959232568740845,0.03959232568740845,1e-04,0.9295555353164673,0.8147591948509216,0.8147591948509216
277,0.9860000014305115,0.037984106689691544,0.037984106689691544,1e-04,0.9311110973358154,0.8141871094703674,0.8141871094703674
278,0.984000027179718,0.045248132199048996,0.045248132199048996,1e-04,0.9319999814033508,0.8121340274810791,0.8121340274810791
279,0.9819999933242798,0.03632145747542381,0.03632145747542381,1e-04,0.9331111311912537,0.8110803961753845,0.8110803961753845
280,0.9800000190734863,0.044254157692193985,0.044254157692193985,1e-04,0.9337777495384216,0.8107901215553284,0.8107901215553284
281,0.9860000014305115,0.03723609447479248,0.03723609447479248,1e-04,0.933555543422699,0.81053626537323,0.81053626537323
282,0.9860000014305115,0.03479975834488869,0.03479975834488869,1e-04,0.933555543422699,0.8108260631561279,0.8108260631561279
283,0.9800000190734863,0.04098351299762726,0.04098351299762726,1e-04,0.9337777495384216,0.8115246891975403,0.8115246891975403
284,0.9919999837875366,0.027352549135684967,0.027352549135684967,1e-04,0.9337777495384216,0.8121581673622131,0.8121581673622131
285,0.9900000095367432,0.03713703900575638,0.03713703900575638,1e-04,0.933555543422699,0.8131070137023926,0.8131070137023926
286,0.984000027179718,0.03535935655236244,0.03535935655236244,1e-04,0.9337777495384216,0.8139802813529968,0.8139802813529968
287,0.9879999756813049,0.031162966042757034,0.031162966042757034,1e-04,0.9337777495384216,0.8152953386306763,0.8152953386306763
288,0.984000027179718,0.04261378198862076,0.04261378198862076,1e-04,0.933555543422699,0.8168284296989441,0.8168284296989441
289,0.9860000014305115,0.04063716530799866,0.04063716530799866,1e-04,0.9326666593551636,0.8192899823188782,0.8192899823188782
290,0.9879999756813049,0.02933882176876068,0.02933882176876068,1e-04,0.9322222471237183,0.8211987018585205,0.8211987018585205
291,0.9940000176429749,0.02682245522737503,0.02682245522737503,1e-04,0.9322222471237183,0.8227685689926147,0.8227685689926147
292,0.984000027179718,0.04980623722076416,0.04980623722076416,1e-04,0.9324444532394409,0.824086606502533,0.824086606502533
293,0.9879999756813049,0.029083870351314545,0.029083870351314545,1e-04,0.9326666593551636,0.8245207071304321,0.8245207071304321
294,0.9800000190734863,0.0417584627866745,0.0417584627866745,1e-04,0.9326666593551636,0.8254857063293457,0.8254857063293457
295,0.9879999756813049,0.035263899713754654,0.035263899713754654,1e-04,0.9328888654708862,0.8261454105377197,0.8261454105377197
296,0.9900000095367432,0.03213990107178688,0.03213990107178688,1e-04,0.9328888654708862,0.8261159658432007,0.8261159658432007
297,0.9900000095367432,0.031015444546937943,0.031015444546937943,1e-04,0.9344444274902344,0.8257322311401367,0.8257322311401367
298,0.9779999852180481,0.04251336306333542,0.04251336306333542,1e-04,0.9342222213745117,0.826504111289978,0.826504111289978
299,0.9879999756813049,0.03191564604640007,0.03191564604640007,1e-04,0.9340000152587891,0.827424943447113,0.827424943447113
300,0.984000027179718,0.04052889347076416,0.04052889347076416,1e-04,0.9324444532394409,0.8287165760993958,0.8287165760993958
301,0.9860000014305115,0.044671863317489624,0.044671863317489624,1e-04,0.9324444532394409,0.8298628926277161,0.8298628926277161
302,0.9819999933242798,0.043035488575696945,0.043035488575696945,1e-04,0.9326666593551636,0.8311141729354858,0.8311141729354858
303,0.9919999837875366,0.035265617072582245,0.035265617072582245,1e-04,0.9326666593551636,0.8319923281669617,0.8319923281669617
304,0.9800000190734863,0.0442204512655735,0.0442204512655735,1e-04,0.9326666593551636,0.8326365351676941,0.8326365351676941
305,0.9879999756813049,0.047720760107040405,0.047720760107040405,1e-04,0.9319999814033508,0.833599328994751,0.833599328994751
306,0.9800000190734863,0.04235897213220596,0.04235897213220596,1e-04,0.9322222471237183,0.8345343470573425,0.8345343470573425
307,0.9900000095367432,0.028798863291740417,0.028798863291740417,1e-04,0.9328888654708862,0.8348053097724915,0.8348053097724915
308,0.9879999756813049,0.03729052096605301,0.03729052096605301,1e-04,0.9328888654708862,0.8352267742156982,0.8352267742156982
309,0.9879999756813049,0.029018111526966095,0.029018111526966095,1e-04,0.9333333373069763,0.8360835313796997,0.8360835313796997
310,0.984000027179718,0.04611274227499962,0.04611274227499962,1e-04,0.933555543422699,0.8364971280097961,0.8364971280097961
311,0.9819999933242798,0.0444653145968914,0.0444653145968914,1e-04,0.9333333373069763,0.8381790518760681,0.8381790518760681
312,0.984000027179718,0.03931128606200218,0.03931128606200218,1e-04,0.9326666593551636,0.8401700258255005,0.8401700258255005
313,0.9860000014305115,0.0370863676071167,0.0370863676071167,1e-04,0.9313333630561829,0.8424993753433228,0.8424993753433228
314,0.9900000095367432,0.034151334315538406,0.034151334315538406,1e-04,0.9304444193840027,0.8445667028427124,0.8445667028427124
315,0.9940000176429749,0.0314442440867424,0.0314442440867424,1e-04,0.9313333630561829,0.8446675539016724,0.8446675539016724
316,0.9900000095367432,0.03115413710474968,0.03115413710474968,1e-04,0.9322222471237183,0.8453623056411743,0.8453623056411743
317,0.9919999837875366,0.026524029672145844,0.026524029672145844,1e-04,0.9328888654708862,0.8459884524345398,0.8459884524345398
318,0.9860000014305115,0.03339583799242973,0.03339583799242973,1e-04,0.9326666593551636,0.8472071290016174,0.8472071290016174
319,0.984000027179718,0.042635560035705566,0.042635560035705566,1e-04,0.9331111311912537,0.8479748368263245,0.8479748368263245
320,0.9819999933242798,0.038108039647340775,0.038108039647340775,1e-04,0.9326666593551636,0.8492881655693054,0.8492881655693054
321,0.9900000095367432,0.031145168468356133,0.031145168468356133,1e-04,0.9319999814033508,0.8512647747993469,0.8512647747993469
322,0.9879999756813049,0.03132813051342964,0.03132813051342964,1e-04,0.93022221326828,0.853954553604126,0.853954553604126
323,0.9860000014305115,0.035012491047382355,0.035012491047382355,1e-04,0.9297778010368347,0.8557080030441284,0.8557080030441284
324,0.9819999933242798,0.04179276525974274,0.04179276525974274,1e-04,0.9295555353164673,0.8567864894866943,0.8567864894866943
325,0.984000027179718,0.036482878029346466,0.036482878029346466,1e-04,0.9308888912200928,0.8567201495170593,0.8567201495170593
326,0.984000027179718,0.03614280745387077,0.03614280745387077,1e-04,0.9333333373069763,0.8551725745201111,0.8551725745201111
327,0.9800000190734863,0.04163387417793274,0.04163387417793274,1e-04,0.9344444274902344,0.8537780046463013,0.8537780046463013
328,0.984000027179718,0.034779708832502365,0.034779708832502365,1e-04,0.9348888993263245,0.8535805344581604,0.8535805344581604
329,0.9860000014305115,0.038162361830472946,0.038162361830472946,1e-04,0.9340000152587891,0.8549481630325317,0.8549481630325317
330,0.9860000014305115,0.034757401794195175,0.034757401794195175,1e-04,0.9326666593551636,0.8563517928123474,0.8563517928123474
331,0.9879999756813049,0.036482591181993484,0.036482591181993484,1e-04,0.9328888654708862,0.8561829328536987,0.8561829328536987
332,0.9879999756813049,0.03392339125275612,0.03392339125275612,1e-04,0.9333333373069763,0.8558449149131775,0.8558449149131775
333,0.9900000095367432,0.0312326792627573,0.0312326792627573,1e-04,0.9333333373069763,0.8557811379432678,0.8557811379432678
334,0.984000027179718,0.04661323502659798,0.04661323502659798,1e-04,0.9333333373069763,0.8556293249130249,0.8556293249130249
335,0.9860000014305115,0.049487099051475525,0.049487099051475525,1e-04,0.9328888654708862,0.8555834889411926,0.8555834889411926
336,0.9819999933242798,0.045938387513160706,0.045938387513160706,1e-04,0.9324444532394409,0.8552789092063904,0.8552789092063904
337,0.9760000109672546,0.040444787591695786,0.040444787591695786,1e-04,0.9322222471237183,0.8549515008926392,0.8549515008926392
338,0.9800000190734863,0.040983445942401886,0.040983445942401886,1e-04,0.9326666593551636,0.8543919920921326,0.8543919920921326
339,0.9860000014305115,0.03351240232586861,0.03351240232586861,1e-04,0.9322222471237183,0.854037344455719,0.854037344455719
340,0.9900000095367432,0.035978469997644424,0.035978469997644424,1e-04,0.9322222471237183,0.8537446856498718,0.8537446856498718
341,0.9860000014305115,0.03446774557232857,0.03446774557232857,1e-04,0.9319999814033508,0.8544365167617798,0.8544365167617798
342,0.984000027179718,0.03979587182402611,0.03979587182402611,1e-04,0.9313333630561829,0.855267345905304,0.855267345905304
343,0.9879999756813049,0.03340477496385574,0.03340477496385574,1e-04,0.93022221326828,0.8562836050987244,0.8562836050987244
344,0.9879999756813049,0.03570877015590668,0.03570877015590668,1e-04,0.9293333292007446,0.8580119609832764,0.8580119609832764
345,0.9860000014305115,0.029717635363340378,0.029717635363340378,1e-04,0.9286666512489319,0.8604012131690979,0.8604012131690979
346,0.984000027179718,0.04573700204491615,0.04573700204491615,1e-04,0.9279999732971191,0.8610677123069763,0.8610677123069763
347,0.9879999756813049,0.03283946216106415,0.03283946216106415,1e-04,0.9288889169692993,0.8604269623756409,0.8604269623756409
348,0.984000027179718,0.033888254314661026,0.033888254314661026,1e-04,0.9297778010368347,0.8604720234870911,0.8604720234870911
349,0.9900000095367432,0.03342091664671898,0.03342091664671898,1e-04,0.9317777752876282,0.8600309491157532,0.8600309491157532
350,0.9860000014305115,0.03284518048167229,0.03284518048167229,1e-04,0.9326666593551636,0.8600785732269287,0.8600785732269287
351,0.984000027179718,0.031095124781131744,0.031095124781131744,1e-04,0.9331111311912537,0.8612908124923706,0.8612908124923706
352,0.9819999933242798,0.03287659212946892,0.03287659212946892,1e-04,0.9328888654708862,0.8633396029472351,0.8633396029472351
353,0.9860000014305115,0.029172338545322418,0.029172338545322418,1e-04,0.9304444193840027,0.8660524487495422,0.8660524487495422
354,0.9940000176429749,0.029208475723862648,0.029208475723862648,1e-04,0.9300000071525574,0.8677836656570435,0.8677836656570435
355,0.9919999837875366,0.029947679489850998,0.029947679489850998,1e-04,0.93022221326828,0.8691912889480591,0.8691912889480591
356,0.9900000095367432,0.031112726777791977,0.031112726777791977,1e-04,0.933555543422699,0.8691204190254211,0.8691204190254211
357,0.9919999837875366,0.02859732322394848,0.02859732322394848,1e-04,0.9337777495384216,0.8689855933189392,0.8689855933189392
358,0.9879999756813049,0.031197162345051765,0.031197162345051765,1e-04,0.9359999895095825,0.868834912776947,0.868834912776947
359,0.9879999756813049,0.035878874361515045,0.035878874361515045,1e-04,0.937333345413208,0.8692219853401184,0.8692219853401184
360,0.984000027179718,0.03844262659549713,0.03844262659549713,1e-04,0.9364444613456726,0.8700374364852905,0.8700374364852905
361,0.984000027179718,0.031492337584495544,0.031492337584495544,1e-04,0.9362221956253052,0.8709157109260559,0.8709157109260559
362,0.9919999837875366,0.032270804047584534,0.032270804047584534,1e-04,0.9344444274902344,0.8725252151489258,0.8725252151489258
363,0.984000027179718,0.03714067488908768,0.03714067488908768,1e-04,0.9324444532394409,0.8757954239845276,0.8757954239845276
364,0.9879999756813049,0.035076819360256195,0.035076819360256195,1e-04,0.9282222390174866,0.8802170753479004,0.8802170753479004
365,0.9879999756813049,0.03182607889175415,0.03182607889175415,1e-04,0.9262222051620483,0.8831331133842468,0.8831331133842468
366,0.9900000095367432,0.031051170080900192,0.031051170080900192,1e-04,0.9282222390174866,0.881604015827179,0.881604015827179
367,0.9959999918937683,0.0218189749866724,0.0218189749866724,1e-04,0.9315555691719055,0.8776943683624268,0.8776943683624268
368,0.984000027179718,0.04417499154806137,0.04417499154806137,1e-04,0.9331111311912537,0.8764294981956482,0.8764294981956482
369,0.9860000014305115,0.03092370554804802,0.03092370554804802,1e-04,0.9340000152587891,0.8764082193374634,0.8764082193374634
370,0.9900000095367432,0.03545708954334259,0.03545708954334259,1e-04,0.9348888993263245,0.8764659762382507,0.8764659762382507
371,0.9860000014305115,0.03279251977801323,0.03279251977801323,1e-04,0.9353333115577698,0.8770301938056946,0.8770301938056946
372,0.9900000095367432,0.031399909406900406,0.031399909406900406,1e-04,0.9351111054420471,0.8780006766319275,0.8780006766319275
373,0.9879999756813049,0.030228905379772186,0.030228905379772186,1e-04,0.9342222213745117,0.8789731860160828,0.8789731860160828
374,0.9860000014305115,0.04097091779112816,0.04097091779112816,1e-04,0.9319999814033508,0.8829669952392578,0.8829669952392578
375,0.9879999756813049,0.03332643583416939,0.03332643583416939,1e-04,0.929111123085022,0.8884138464927673,0.8884138464927673
376,0.9860000014305115,0.03646133840084076,0.03646133840084076,1e-04,0.9277777671813965,0.8910145163536072,0.8910145163536072
377,0.9860000014305115,0.03328524902462959,0.03328524902462959,1e-04,0.9279999732971191,0.8925687074661255,0.8925687074661255
378,0.9879999756813049,0.03365844488143921,0.03365844488143921,1e-04,0.9295555353164673,0.8923924565315247,0.8923924565315247
379,0.9860000014305115,0.041104450821876526,0.041104450821876526,1e-04,0.9315555691719055,0.8897494673728943,0.8897494673728943
380,0.9900000095367432,0.032156091183423996,0.032156091183423996,1e-04,0.9328888654708862,0.8882099390029907,0.8882099390029907
381,0.9900000095367432,0.030761921778321266,0.030761921778321266,1e-04,0.9342222213745117,0.8870910406112671,0.8870910406112671
382,0.9879999756813049,0.03252970054745674,0.03252970054745674,1e-04,0.9344444274902344,0.8867873549461365,0.8867873549461365
383,0.9819999933242798,0.043574027717113495,0.043574027717113495,1e-04,0.9342222213745117,0.8887730240821838,0.8887730240821838
384,0.9879999756813049,0.029049109667539597,0.029049109667539597,1e-04,0.9331111311912537,0.891314685344696,0.891314685344696
385,0.9900000095367432,0.02523927204310894,0.02523927204310894,1e-04,0.9333333373069763,0.894540011882782,0.894540011882782
386,0.9900000095367432,0.03566060960292816,0.03566060960292816,1e-04,0.9317777752876282,0.8983542323112488,0.8983542323112488
387,0.9919999837875366,0.029352478682994843,0.029352478682994843,1e-04,0.9319999814033508,0.9004217982292175,0.9004217982292175
388,0.9919999837875366,0.02911825105547905,0.02911825105547905,1e-04,0.9315555691719055,0.9030435085296631,0.9030435085296631
389,0.9900000095367432,0.02653285674750805,0.02653285674750805,1e-04,0.9308888912200928,0.9059596657752991,0.9059596657752991
390,0.9919999837875366,0.02388736791908741,0.02388736791908741,1e-04,0.9297778010368347,0.9090675711631775,0.9090675711631775
391,0.9860000014305115,0.03459102660417557,0.03459102660417557,1e-04,0.9308888912200928,0.9091579914093018,0.9091579914093018
392,0.9900000095367432,0.031454168260097504,0.031454168260097504,1e-04,0.9313333630561829,0.9094960689544678,0.9094960689544678
393,0.9860000014305115,0.03483307361602783,0.03483307361602783,1e-04,0.9328888654708862,0.9093345403671265,0.9093345403671265
394,0.9900000095367432,0.021739009767770767,0.021739009767770767,1e-04,0.9331111311912537,0.908845067024231,0.908845067024231
395,0.9879999756813049,0.03242675960063934,0.03242675960063934,1e-04,0.9342222213745117,0.9092298746109009,0.9092298746109009
396,0.9879999756813049,0.031747788190841675,0.031747788190841675,1e-04,0.9340000152587891,0.9094721078872681,0.9094721078872681
397,0.9879999756813049,0.024882148951292038,0.024882148951292038,1e-04,0.9328888654708862,0.9102144837379456,0.9102144837379456
398,0.9900000095367432,0.028409499675035477,0.028409499675035477,1e-04,0.9304444193840027,0.9121105670928955,0.9121105670928955
399,0.9879999756813049,0.03325551003217697,0.03325551003217697,1e-04,0.9282222390174866,0.9147680997848511,0.9147680997848511
400,0.9900000095367432,0.03154419735074043,0.03154419735074043,1e-04,0.9264444708824158,0.9165618419647217,0.9165618419647217
401,0.9919999837875366,0.03064066357910633,0.03064066357910633,1e-04,0.9268888831138611,0.9155452251434326,0.9155452251434326
402,0.9860000014305115,0.03433937951922417,0.03433937951922417,1e-04,0.9279999732971191,0.9142802953720093,0.9142802953720093
403,0.9879999756813049,0.0370088554918766,0.0370088554918766,1e-04,0.9293333292007446,0.9120566248893738,0.9120566248893738
404,0.9919999837875366,0.02782006934285164,0.02782006934285164,1e-04,0.9322222471237183,0.9085999131202698,0.9085999131202698
405,0.984000027179718,0.032487016171216965,0.032487016171216965,1e-04,0.9340000152587891,0.9074086546897888,0.9074086546897888
406,0.9819999933242798,0.03951502591371536,0.03951502591371536,1e-04,0.9337777495384216,0.9069219827651978,0.9069219827651978
407,0.9879999756813049,0.033428072929382324,0.033428072929382324,1e-04,0.9324444532394409,0.9066290259361267,0.9066290259361267
408,0.9919999837875366,0.019880283623933792,0.019880283623933792,1e-04,0.9311110973358154,0.9071813821792603,0.9071813821792603
409,0.9900000095367432,0.029975704848766327,0.029975704848766327,1e-04,0.9297778010368347,0.9094651937484741,0.9094651937484741
410,0.9860000014305115,0.03570706024765968,0.03570706024765968,1e-04,0.9259999990463257,0.9114376902580261,0.9114376902580261
411,0.9940000176429749,0.029420962557196617,0.029420962557196617,1e-04,0.9244444370269775,0.9133968949317932,0.9133968949317932
412,0.9860000014305115,0.04221619293093681,0.04221619293093681,1e-04,0.9244444370269775,0.914517343044281,0.914517343044281
413,0.9879999756813049,0.03543078154325485,0.03543078154325485,1e-04,0.9259999990463257,0.9123947620391846,0.9123947620391846
414,0.984000027179718,0.03143816441297531,0.03143816441297531,1e-04,0.9308888912200928,0.9086938500404358,0.9086938500404358
415,0.9900000095367432,0.02916843444108963,0.02916843444108963,1e-04,0.9333333373069763,0.9064878821372986,0.9064878821372986
416,0.9879999756813049,0.03623159974813461,0.03623159974813461,1e-04,0.9353333115577698,0.9059585332870483,0.9059585332870483
417,0.9879999756813049,0.02785234898328781,0.02785234898328781,1e-04,0.9357777833938599,0.9063507914543152,0.9063507914543152
418,0.9919999837875366,0.02395995892584324,0.02395995892584324,1e-04,0.9351111054420471,0.9072431325912476,0.9072431325912476
419,0.984000027179718,0.0398542582988739,0.0398542582988739,1e-04,0.9340000152587891,0.9095125198364258,0.9095125198364258
420,0.9879999756813049,0.03393293172121048,0.03393293172121048,1e-04,0.9313333630561829,0.9124644994735718,0.9124644994735718
421,0.9879999756813049,0.025073306635022163,0.025073306635022163,1e-04,0.9268888831138611,0.9177895784378052,0.9177895784378052
422,0.9860000014305115,0.032849397510290146,0.032849397510290146,1e-04,0.9268888831138611,0.9215729236602783,0.9215729236602783
423,0.984000027179718,0.03937062993645668,0.03937062993645668,1e-04,0.9275555610656738,0.9222190976142883,0.9222190976142883
424,0.9919999837875366,0.028430113568902016,0.028430113568902016,1e-04,0.9326666593551636,0.9200072884559631,0.9200072884559631
425,0.9860000014305115,0.03470121696591377,0.03470121696591377,1e-04,0.9355555772781372,0.9187856912612915,0.9187856912612915
426,0.9879999756813049,0.0316857285797596,0.0316857285797596,1e-04,0.9371111392974854,0.9197701811790466,0.9197701811790466
427,0.9860000014305115,0.034441202878952026,0.034441202878952026,1e-04,0.9371111392974854,0.9219427108764648,0.9219427108764648
428,0.984000027179718,0.037131015211343765,0.037131015211343765,1e-04,0.9351111054420471,0.9241366982460022,0.9241366982460022
429,0.984000027179718,0.02841927297413349,0.02841927297413349,1e-04,0.933555543422699,0.9280620813369751,0.9280620813369751
430,0.9900000095367432,0.02840588241815567,0.02840588241815567,1e-04,0.9288889169692993,0.9331251382827759,0.9331251382827759
431,0.9800000190734863,0.030831225216388702,0.030831225216388702,1e-04,0.9253333210945129,0.9380900859832764,0.9380901455879211
432,0.9879999756813049,0.03183956816792488,0.03183956816792488,1e-04,0.9244444370269775,0.9423356056213379,0.9423356056213379
433,0.9919999837875366,0.03034803457558155,0.03034803457558155,1e-04,0.9242222309112549,0.9454684257507324,0.9454684257507324
434,0.9800000190734863,0.04836278781294823,0.04836278781294823,1e-04,0.925777792930603,0.9439250230789185,0.9439250230789185
435,0.9900000095367432,0.02505205012857914,0.02505205012857914,1e-04,0.9306666851043701,0.9425309300422668,0.9425309300422668
436,0.9860000014305115,0.03336336091160774,0.03336336091160774,1e-04,0.9324444532394409,0.9415632486343384,0.9415632486343384
437,0.9860000014305115,0.029075201600790024,0.029075201600790024,1e-04,0.9337777495384216,0.9411203265190125,0.9411203265190125
438,0.9819999933242798,0.03870093822479248,0.03870093822479248,1e-04,0.9337777495384216,0.9410082697868347,0.9410082697868347
439,0.9879999756813049,0.026768555864691734,0.026768555864691734,1e-04,0.9337777495384216,0.9412163496017456,0.9412163496017456
440,0.984000027179718,0.03852756321430206,0.03852756321430206,1e-04,0.9317777752876282,0.9433904886245728,0.9433904886245728
441,0.9879999756813049,0.026973260566592216,0.026973260566592216,1e-04,0.9279999732971191,0.9481180310249329,0.9481179714202881
442,0.9879999756813049,0.030920840799808502,0.030920840799808502,1e-04,0.9244444370269775,0.9506356120109558,0.9506356120109558
443,0.9900000095367432,0.029319830238819122,0.029319830238819122,1e-04,0.9237777590751648,0.9534504413604736,0.9534504413604736
444,0.9879999756813049,0.03207629919052124,0.03207629919052124,1e-04,0.9237777590751648,0.9519075751304626,0.9519075751304626
445,0.9860000014305115,0.03941976651549339,0.03941976651549339,1e-04,0.9264444708824158,0.9471943378448486,0.9471943378448486
446,0.9919999837875366,0.019557064399123192,0.019557064399123192,1e-04,0.9295555353164673,0.9422929883003235,0.9422929883003235
447,0.9879999756813049,0.029966259375214577,0.029966259375214577,1e-04,0.9315555691719055,0.9400461316108704,0.9400461316108704
448,0.9860000014305115,0.030260879546403885,0.030260879546403885,1e-04,0.9346666932106018,0.9370706677436829,0.9370706677436829
449,0.984000027179718,0.03268107399344444,0.03268107399344444,1e-04,0.9357777833938599,0.9360330700874329,0.9360330700874329
450,0.9900000095367432,0.025432247668504715,0.025432247668504715,1e-04,0.9355555772781372,0.935187816619873,0.935187816619873
451,0.984000027179718,0.033543575555086136,0.033543575555086136,1e-04,0.9342222213745117,0.9357067346572876,0.9357067346572876
452,0.9860000014305115,0.030883168801665306,0.030883168801665306,1e-04,0.9326666593551636,0.9372230768203735,0.9372231960296631
453,0.9900000095367432,0.028202936053276062,0.028202936053276062,1e-04,0.9293333292007446,0.9406013488769531,0.9406013488769531
454,0.984000027179718,0.03247317299246788,0.03247317299246788,1e-04,0.9262222051620483,0.9449710249900818,0.9449710249900818
455,0.9879999756813049,0.03319305554032326,0.03319305554032326,1e-04,0.9259999990463257,0.9467558860778809,0.9467558860778809
456,0.9940000176429749,0.018241100013256073,0.018241100013256073,1e-04,0.925777792930603,0.9481031894683838,0.9481031894683838
457,0.9919999837875366,0.02651306800544262,0.02651306800544262,1e-04,0.9259999990463257,0.9477391242980957,0.9477391242980957
458,0.9879999756813049,0.031563613563776016,0.031563613563776016,1e-04,0.9286666512489319,0.9470455646514893,0.9470455646514893
459,0.9940000176429749,0.02148851938545704,0.02148851938545704,1e-04,0.9297778010368347,0.9468404054641724,0.9468404054641724
460,0.9860000014305115,0.031362343579530716,0.031362343579530716,1e-04,0.9304444193840027,0.9491998553276062,0.9491998553276062
461,0.9900000095367432,0.023129306733608246,0.023129306733608246,1e-04,0.9293333292007446,0.9519685506820679,0.9519685506820679
462,0.9900000095367432,0.02763219363987446,0.02763219363987446,1e-04,0.9293333292007446,0.9530318975448608,0.9530318975448608
463,0.984000027179718,0.03984040766954422,0.03984040766954422,1e-04,0.9293333292007446,0.9560704231262207,0.9560704231262207
464,0.9919999837875366,0.02518157847225666,0.02518157847225666,1e-04,0.9288889169692993,0.9591014385223389,0.9591014385223389
465,0.9879999756813049,0.030960680916905403,0.030960680916905403,1e-04,0.9284444451332092,0.9628280997276306,0.9628280997276306
466,0.9959999918937683,0.019744588062167168,0.019744588062167168,1e-04,0.9297778010368347,0.9649537801742554,0.9649537801742554
467,0.9900000095367432,0.030181702226400375,0.030181702226400375,1e-04,0.9297778010368347,0.9673517942428589,0.9673517942428589
468,0.9879999756813049,0.032095979899168015,0.032095979899168015,1e-04,0.93022221326828,0.9702341556549072,0.9702341556549072
469,0.9879999756813049,0.0311190877109766,0.0311190877109766,1e-04,0.9293333292007446,0.9733290076255798,0.9733290076255798
470,0.9879999756813049,0.02978278137743473,0.02978278137743473,1e-04,0.929111123085022,0.9764453172683716,0.9764453172683716
471,0.9879999756813049,0.03512454777956009,0.03512454777956009,1e-04,0.9282222390174866,0.9813081622123718,0.9813081622123718
472,0.9900000095367432,0.028039982542395592,0.028039982542395592,1e-04,0.9271110892295837,0.984697163105011,0.984697163105011
473,0.9940000176429749,0.02117668092250824,0.02117668092250824,1e-04,0.9273333549499512,0.9856509566307068,0.9856509566307068
474,0.9959999918937683,0.025330470874905586,0.025330470874905586,1e-04,0.9297778010368347,0.9860498905181885,0.9860498905181885
475,0.9879999756813049,0.03452499210834503,0.03452499210834503,1e-04,0.93022221326828,0.986984372138977,0.986984372138977
476,0.9919999837875366,0.025274770334362984,0.025274770334362984,1e-04,0.9317777752876282,0.9882878661155701,0.9882878661155701
477,0.9919999837875366,0.020697351545095444,0.020697351545095444,1e-04,0.9311110973358154,0.9903481006622314,0.9903481006622314
478,0.9879999756813049,0.029788024723529816,0.029788024723529816,1e-04,0.9286666512489319,0.9934791922569275,0.9934791922569275
479,0.9919999837875366,0.019749697297811508,0.019749697297811508,1e-04,0.9264444708824158,0.9970671534538269,0.9970671534538269
480,0.9919999837875366,0.02105179987847805,0.02105179987847805,1e-04,0.9259999990463257,0.9990286231040955,0.9990286231040955
481,0.9940000176429749,0.02410205826163292,0.02410205826163292,1e-04,0.9259999990463257,1.000223159790039,1.000223159790039
482,0.9959999918937683,0.01698586344718933,0.01698586344718933,1e-04,0.9284444451332092,0.9999000430107117,0.9999000430107117
483,0.9879999756813049,0.02757684513926506,0.02757684513926506,1e-04,0.9288889169692993,1.0002951622009277,1.0002951622009277
484,0.9919999837875366,0.021384963765740395,0.021384963765740395,1e-04,0.929111123085022,1.0011729001998901,1.0011729001998901
485,0.9879999756813049,0.024376701563596725,0.024376701563596725,1e-04,0.9282222390174866,1.0026936531066895,1.0026936531066895
486,0.9860000014305115,0.031231610104441643,0.031231610104441643,1e-04,0.9288889169692993,1.0043799877166748,1.0043799877166748
487,0.9919999837875366,0.021405501291155815,0.021405501291155815,1e-04,0.9286666512489319,1.0058643817901611,1.0058643817901611
488,0.9900000095367432,0.025759616866707802,0.025759616866707802,1e-04,0.929111123085022,1.0071784257888794,1.0071784257888794
489,0.9940000176429749,0.023065393790602684,0.023065393790602684,1e-04,0.9286666512489319,1.0089709758758545,1.0089709758758545
490,0.9959999918937683,0.020953988656401634,0.020953988656401634,1e-04,0.9288889169692993,1.0105035305023193,1.0105035305023193
491,0.9919999837875366,0.023388860747218132,0.023388860747218132,1e-04,0.9293333292007446,1.011494517326355,1.011494517326355
492,0.9900000095367432,0.0332443043589592,0.0332443043589592,1e-04,0.9284444451332092,1.0135003328323364,1.0135003328323364
493,0.9879999756813049,0.026675337925553322,0.026675337925553322,1e-04,0.9279999732971191,1.016579508781433,1.016579508781433
494,0.984000027179718,0.03179424628615379,0.03179424628615379,1e-04,0.9284444451332092,1.017659068107605,1.017659068107605
495,0.9879999756813049,0.02379121445119381,0.02379121445119381,1e-04,0.9284444451332092,1.018007516860962,1.018007516860962
496,0.9919999837875366,0.02308598905801773,0.02308598905801773,1e-04,0.9293333292007446,1.0178862810134888,1.0178862810134888
497,0.9900000095367432,0.023980433121323586,0.023980433121323586,1e-04,0.929111123085022,1.0193274021148682,1.0193274021148682
498,0.9860000014305115,0.0319974310696125,0.0319974310696125,1e-04,0.9293333292007446,1.0197621583938599,1.0197620391845703
499,0.9919999837875366,0.024793922901153564,0.024793922901153564,1e-04,0.9295555353164673,1.0204068422317505,1.0204068422317505
500,0.9900000095367432,0.023793771862983704,0.023793771862983704,1e-04,0.9295555353164673,1.021798014640808,1.021798014640808
501,0.984000027179718,0.03682457283139229,0.03682457283139229,1e-04,0.93022221326828,1.0220638513565063,1.0220638513565063
502,0.9940000176429749,0.020126374438405037,0.020126374438405037,1e-04,0.9313333630561829,1.0219409465789795,1.0219409465789795
503,0.9879999756813049,0.028002610430121422,0.028002610430121422,1e-04,0.9311110973358154,1.0224071741104126,1.0224071741104126
504,0.9919999837875366,0.0272069051861763,0.0272069051861763,1e-04,0.9311110973358154,1.023043155670166,1.023043155670166
505,0.9879999756813049,0.03134802356362343,0.03134802356362343,1e-04,0.9300000071525574,1.0246036052703857,1.0246036052703857
506,0.9900000095367432,0.025307832285761833,0.025307832285761833,1e-04,0.9264444708824158,1.0275111198425293,1.0275111198425293
507,0.9860000014305115,0.034841056913137436,0.034841056913137436,1e-04,0.9248889088630676,1.0305562019348145,1.0305562019348145
508,0.9900000095367432,0.02328699827194214,0.02328699827194214,1e-04,0.9228888750076294,1.0329967737197876,1.0329967737197876
509,0.9900000095367432,0.03502538800239563,0.03502538800239563,1e-04,0.9226666688919067,1.0307437181472778,1.0307437181472778
510,0.9879999756813049,0.03398505598306656,0.03398505598306656,1e-04,0.9244444370269775,1.0244561433792114,1.0244561433792114
511,0.9900000095367432,0.025213811546564102,0.025213811546564102,1e-04,0.9268888831138611,1.0188828706741333,1.0188828706741333
512,0.9860000014305115,0.028887085616588593,0.028887085616588593,1e-04,0.9284444451332092,1.015242576599121,1.015242576599121
513,0.9919999837875366,0.026061847805976868,0.026061847805976868,1e-04,0.9293333292007446,1.0141388177871704,1.0141388177871704
514,0.9860000014305115,0.03093397431075573,0.03093397431075573,1e-04,0.9300000071525574,1.013887643814087,1.013887643814087
515,0.9900000095367432,0.02267823927104473,0.02267823927104473,1e-04,0.93022221326828,1.0133358240127563,1.0133358240127563
516,0.9959999918937683,0.0197680052369833,0.0197680052369833,1e-04,0.9304444193840027,1.013528823852539,1.013528823852539
517,0.9879999756813049,0.029479313641786575,0.029479313641786575,1e-04,0.9300000071525574,1.0137583017349243,1.0137583017349243
518,0.9879999756813049,0.030051548033952713,0.030051548033952713,1e-04,0.9308888912200928,1.0119937658309937,1.0119937658309937
519,0.9900000095367432,0.026302335783839226,0.026302335783839226,1e-04,0.9319999814033508,1.0110034942626953,1.0110034942626953
520,0.9879999756813049,0.02700483612716198,0.02700483612716198,1e-04,0.9315555691719055,1.0118414163589478,1.0118414163589478
521,0.9900000095367432,0.024767793715000153,0.024767793715000153,1e-04,0.9313333630561829,1.0134154558181763,1.0134154558181763
522,0.9980000257492065,0.02018648386001587,0.02018648386001587,1e-04,0.9315555691719055,1.0132502317428589,1.0132502317428589
523,0.9919999837875366,0.02262781746685505,0.02262781746685505,1e-04,0.9315555691719055,1.0138005018234253,1.0138005018234253
524,0.9879999756813049,0.02595742605626583,0.02595742605626583,1e-04,0.9322222471237183,1.0149058103561401,1.0149058103561401
525,0.9940000176429749,0.018660254776477814,0.018660254776477814,1e-04,0.9324444532394409,1.0165272951126099,1.0165272951126099
526,0.9879999756813049,0.02317715808749199,0.02317715808749199,1e-04,0.9317777752876282,1.0194710493087769,1.0194710493087769
527,0.9919999837875366,0.022417502477765083,0.022417502477765083,1e-04,0.9304444193840027,1.0226287841796875,1.0226287841796875
528,0.9879999756813049,0.030179491266608238,0.030179491266608238,1e-04,0.929111123085022,1.025942325592041,1.025942325592041
529,0.9940000176429749,0.021063659340143204,0.021063659340143204,1e-04,0.9264444708824158,1.0301698446273804,1.0301698446273804
530,0.9940000176429749,0.015360254794359207,0.015360254794359207,1e-04,0.9262222051620483,1.0326335430145264,1.0326335430145264
531,0.9879999756813049,0.038144830614328384,0.038144830614328384,1e-04,0.9264444708824158,1.033586025238037,1.033586025238037
532,0.9819999933242798,0.037304170429706573,0.037304170429706573,1e-04,0.9275555610656738,1.0342233180999756,1.0342233180999756
533,0.9980000257492065,0.01604069210588932,0.01604069210588932,1e-04,0.9300000071525574,1.0342259407043457,1.0342259407043457
534,0.9919999837875366,0.021106144413352013,0.021106144413352013,1e-04,0.9317777752876282,1.0354691743850708,1.0354691743850708
535,0.984000027179718,0.04572456702589989,0.04572456702589989,1e-04,0.9317777752876282,1.037529706954956,1.037529706954956
536,0.9919999837875366,0.023180481046438217,0.023180481046438217,1e-04,0.9311110973358154,1.0402175188064575,1.0402175188064575
537,0.9940000176429749,0.016369536519050598,0.016369536519050598,1e-04,0.93022221326828,1.043384075164795,1.043384075164795
538,0.9919999837875366,0.024487992748618126,0.024487992748618126,1e-04,0.9286666512489319,1.0476890802383423,1.0476890802383423
539,0.9919999837875366,0.017450641840696335,0.017450641840696335,1e-04,0.9266666769981384,1.0524542331695557,1.0524543523788452
540,0.9879999756813049,0.026564715430140495,0.026564715430140495,1e-04,0.9244444370269775,1.0571269989013672,1.0571269989013672
541,0.9919999837875366,0.022276824340224266,0.022276824340224266,1e-04,0.9244444370269775,1.0602033138275146,1.0602033138275146
542,0.9940000176429749,0.023741798475384712,0.023741798475384712,1e-04,0.9268888831138611,1.0592842102050781,1.0592842102050781
543,0.9940000176429749,0.028172804042696953,0.028172804042696953,1e-04,0.9297778010368347,1.0575573444366455,1.0575573444366455
544,0.9860000014305115,0.03176643326878548,0.03176643326878548,1e-04,0.9308888912200928,1.0585967302322388,1.0585967302322388
545,0.9919999837875366,0.023456836119294167,0.023456836119294167,1e-04,0.9304444193840027,1.0601524114608765,1.0601524114608765
546,0.9940000176429749,0.022161191329360008,0.022161191329360008,1e-04,0.93022221326828,1.062408208847046,1.062408208847046
547,0.9919999837875366,0.026238765567541122,0.026238765567541122,1e-04,0.9297778010368347,1.0643823146820068,1.0643823146820068
548,0.9879999756813049,0.029013102874159813,0.029013102874159813,1e-04,0.9277777671813965,1.0675901174545288,1.0675901174545288
549,0.9919999837875366,0.02553185075521469,0.02553185075521469,1e-04,0.9264444708824158,1.071040153503418,1.071040153503418
550,0.984000027179718,0.04291689023375511,0.04291689023375511,1e-04,0.9253333210945129,1.0736225843429565,1.0736225843429565
551,0.9980000257492065,0.019699081778526306,0.019699081778526306,1e-04,0.9251111149787903,1.0731561183929443,1.0731561183929443
552,0.9919999837875366,0.028227338567376137,0.028227338567376137,1e-04,0.9262222051620483,1.0711711645126343,1.0711711645126343
553,0.9919999837875366,0.027326876297593117,0.027326876297593117,1e-04,0.9271110892295837,1.0723458528518677,1.0723458528518677
554,0.9879999756813049,0.028002528473734856,0.028002528473734856,1e-04,0.9279999732971191,1.0744718313217163,1.0744718313217163
555,0.9919999837875366,0.021573567762970924,0.021573567762970924,1e-04,0.9286666512489319,1.0762271881103516,1.0762271881103516
556,0.9879999756813049,0.036545753479003906,0.036545753479003906,1e-04,0.9288889169692993,1.0786391496658325,1.0786391496658325
557,0.9919999837875366,0.021213678643107414,0.021213678643107414,1e-04,0.9293333292007446,1.0796583890914917,1.0796583890914917
558,0.9879999756813049,0.026406722143292427,0.026406722143292427,1e-04,0.9297778010368347,1.0811749696731567,1.0811749696731567
559,0.9919999837875366,0.018909484148025513,0.018909484148025513,1e-04,0.9313333630561829,1.0826603174209595,1.0826603174209595
560,0.9900000095367432,0.019103743135929108,0.019103743135929108,1e-04,0.9315555691719055,1.084349513053894,1.084349513053894
561,0.9900000095367432,0.027638277038931847,0.027638277038931847,1e-04,0.9317777752876282,1.0861245393753052,1.0861245393753052
562,0.9919999837875366,0.01943059079349041,0.01943059079349041,1e-04,0.9315555691719055,1.087699055671692,1.087699055671692
563,0.9919999837875366,0.01930548995733261,0.01930548995733261,1e-04,0.9313333630561829,1.0891671180725098,1.0891671180725098
564,0.9919999837875366,0.019710911437869072,0.019710911437869072,1e-04,0.9317777752876282,1.0904715061187744,1.0904715061187744
565,0.9900000095367432,0.024700066074728966,0.024700066074728966,1e-04,0.9313333630561829,1.092529535293579,1.092529535293579
566,0.9919999837875366,0.02991066686809063,0.02991066686809063,1e-04,0.9293333292007446,1.0964938402175903,1.0964938402175903
567,0.9900000095367432,0.030224721878767014,0.030224721878767014,1e-04,0.9266666769981384,1.0998131036758423,1.0998129844665527
568,0.9919999837875366,0.0189637690782547,0.0189637690782547,1e-04,0.9264444708824158,1.0989490747451782,1.0989490747451782
569,0.9919999837875366,0.02271675132215023,0.02271675132215023,1e-04,0.9268888831138611,1.0978063344955444,1.0978063344955444
570,0.9879999756813049,0.020441267639398575,0.020441267639398575,1e-04,0.9279999732971191,1.0958102941513062,1.0958102941513062
571,0.9900000095367432,0.027115503326058388,0.027115503326058388,1e-04,0.9295555353164673,1.0937820672988892,1.0937820672988892
572,0.9919999837875366,0.025705931708216667,0.025705931708216667,1e-04,0.9293333292007446,1.0925976037979126,1.0925976037979126
573,0.9940000176429749,0.017631523311138153,0.017631523311138153,1e-04,0.929111123085022,1.0919910669326782,1.0919910669326782
574,0.9900000095367432,0.024162178859114647,0.024162178859114647,1e-04,0.9284444451332092,1.0922179222106934,1.0922179222106934
575,0.9900000095367432,0.02089531347155571,0.02089531347155571,1e-04,0.9288889169692993,1.0905917882919312,1.0905917882919312
576,0.9919999837875366,0.02313767373561859,0.02313767373561859,1e-04,0.929111123085022,1.09079909324646,1.09079909324646
577,0.9919999837875366,0.024821465834975243,0.024821465834975243,1e-04,0.9279999732971191,1.0917612314224243,1.0917612314224243
578,0.9919999837875366,0.019904064014554024,0.019904064014554024,1e-04,0.9288889169692993,1.0917021036148071,1.0917021036148071
579,0.9919999837875366,0.01781473681330681,0.01781473681330681,1e-04,0.9286666512489319,1.0941318273544312,1.0941318273544312
580,0.9940000176429749,0.015307437628507614,0.015307437628507614,1e-04,0.9286666512489319,1.0967344045639038,1.0967344045639038
581,0.9879999756813049,0.029895246028900146,0.029895246028900146,1e-04,0.9286666512489319,1.098702073097229,1.098702073097229
582,0.9940000176429749,0.01831127516925335,0.01831127516925335,1e-04,0.9286666512489319,1.101219892501831,1.101219892501831
583,0.9900000095367432,0.025472598150372505,0.025472598150372505,1e-04,0.9284444451332092,1.1020344495773315,1.1020344495773315
584,0.9959999918937683,0.019563347101211548,0.019563347101211548,1e-04,0.9266666769981384,1.1040568351745605,1.1040568351745605
585,0.9959999918937683,0.029382998123764992,0.029382998123764992,1e-04,0.9259999990463257,1.1074752807617188,1.1074752807617188
586,0.984000027179718,0.03918571397662163,0.03918571397662163,1e-04,0.9235555529594421,1.112305998802185,1.112305998802185
587,0.9900000095367432,0.023835498839616776,0.023835498839616776,1e-04,0.9237777590751648,1.1145944595336914,1.1145944595336914
588,0.9959999918937683,0.016765326261520386,0.016765326261520386,1e-04,0.925777792930603,1.1128073930740356,1.1128073930740356
589,0.9879999756813049,0.023982422426342964,0.023982422426342964,1e-04,0.9288889169692993,1.10863196849823,1.10863196849823
590,0.9959999918937683,0.0162709578871727,0.0162709578871727,1e-04,0.9340000152587891,1.1071858406066895,1.1071858406066895
591,0.9940000176429749,0.020642511546611786,0.020642511546611786,1e-04,0.9344444274902344,1.108268141746521,1.108268141746521
592,0.9900000095367432,0.02285776287317276,0.02285776287317276,1e-04,0.9344444274902344,1.1101248264312744,1.1101248264312744
593,0.9940000176429749,0.02078639529645443,0.02078639529645443,1e-04,0.9331111311912537,1.1122454404830933,1.1122454404830933
594,0.9919999837875366,0.02584606595337391,0.02584606595337391,1e-04,0.9293333292007446,1.116191029548645,1.116191029548645
595,0.9919999837875366,0.02319629304111004,0.02319629304111004,1e-04,0.9271110892295837,1.1223105192184448,1.1223105192184448
596,0.9879999756813049,0.027526026591658592,0.027526026591658592,1e-04,0.9248889088630676,1.1268277168273926,1.1268277168273926
597,0.9959999918937683,0.020288316532969475,0.020288316532969475,1e-04,0.9268888831138611,1.1272985935211182,1.1272985935211182
598,0.9919999837875366,0.014923475682735443,0.014923475682735443,1e-04,0.9277777671813965,1.127657413482666,1.127657413482666
599,0.9940000176429749,0.02017444558441639,0.02017444558441639,1e-04,0.9277777671813965,1.1285507678985596,1.1285507678985596
600,0.9900000095367432,0.026098433881998062,0.026098433881998062,1e-04,0.9273333549499512,1.1312739849090576,1.1312739849090576
601,0.9940000176429749,0.021974897012114525,0.021974897012114525,1e-04,0.9271110892295837,1.1340930461883545,1.1340930461883545
602,0.9900000095367432,0.024623358622193336,0.024623358622193336,1e-04,0.925777792930603,1.138627052307129,1.138627052307129
603,0.9940000176429749,0.02635558322072029,0.02635558322072029,1e-04,0.9244444370269775,1.1408276557922363,1.1408276557922363
604,0.9959999918937683,0.01966102048754692,0.01966102048754692,1e-04,0.9253333210945129,1.1403530836105347,1.1403530836105347
605,0.9940000176429749,0.017446937039494514,0.017446937039494514,1e-04,0.9282222390174866,1.137426733970642,1.137426733970642
606,0.9879999756813049,0.01977507583796978,0.01977507583796978,1e-04,0.9306666851043701,1.135837435722351,1.135837435722351
607,0.9959999918937683,0.012962116859853268,0.012962116859853268,1e-04,0.9331111311912537,1.1363328695297241,1.1363328695297241
608,0.9919999837875366,0.022549735382199287,0.022549735382199287,1e-04,0.9328888654708862,1.1369678974151611,1.1369678974151611
609,0.9919999837875366,0.01930302567780018,0.01930302567780018,1e-04,0.9311110973358154,1.13748037815094,1.13748037815094
610,0.984000027179718,0.0335720032453537,0.0335720032453537,1e-04,0.9286666512489319,1.139634370803833,1.139634370803833
611,0.9879999756813049,0.030118247494101524,0.030118247494101524,1e-04,0.9240000247955322,1.1449532508850098,1.1449532508850098
612,0.9919999837875366,0.01543392799794674,0.01543392799794674,1e-04,0.9193333387374878,1.1507846117019653,1.1507846117019653
613,0.9919999837875366,0.023358119651675224,0.023358119651675224,1e-04,0.918666660785675,1.1514486074447632,1.1514486074447632
614,0.9959999918937683,0.02040792815387249,0.02040792815387249,1e-04,0.921999990940094,1.1465909481048584,1.1465909481048584
615,0.9959999918937683,0.017474688589572906,0.017474688589572906,1e-04,0.9268888831138611,1.1428672075271606,1.1428672075271606
616,0.9940000176429749,0.01881580799818039,0.01881580799818039,1e-04,0.9288889169692993,1.1407923698425293,1.1407923698425293
617,0.9940000176429749,0.016840854659676552,0.016840854659676552,1e-04,0.9313333630561829,1.140553593635559,1.140553593635559
618,0.9919999837875366,0.018887225538492203,0.018887225538492203,1e-04,0.9313333630561829,1.140500545501709,1.140500545501709
619,0.9919999837875366,0.021700073033571243,0.021700073033571243,1e-04,0.9306666851043701,1.1404389142990112,1.1404389142990112
620,0.9879999756813049,0.030118189752101898,0.030118189752101898,1e-04,0.9268888831138611,1.141991138458252,1.141991138458252
621,0.9919999837875366,0.01438210066407919,0.01438210066407919,1e-04,0.9222221970558167,1.146972417831421,1.146972417831421
622,0.9940000176429749,0.020754285156726837,0.020754285156726837,1e-04,0.9213333129882812,1.1489847898483276,1.1489847898483276
623,0.9959999918937683,0.022939331829547882,0.022939331829547882,1e-04,0.9206666946411133,1.1501249074935913,1.1501249074935913
624,0.9940000176429749,0.02424437366425991,0.02424437366425991,1e-04,0.9231111407279968,1.148281216621399,1.148281216621399
625,0.9860000014305115,0.026396717876195908,0.026396717876195908,1e-04,0.9277777671813965,1.143555998802185,1.143555998802185
626,0.9919999837875366,0.016289835795760155,0.016289835795760155,1e-04,0.9317777752876282,1.1429872512817383,1.1429872512817383
627,0.9940000176429749,0.013412413187325,0.013412413187325,1e-04,0.9328888654708862,1.1439539194107056,1.1439539194107056
628,0.9919999837875366,0.02075592242181301,0.02075592242181301,1e-04,0.9333333373069763,1.1463313102722168,1.1463313102722168
629,0.9919999837875366,0.023966576904058456,0.023966576904058456,1e-04,0.9304444193840027,1.1495165824890137,1.1495165824890137
630,0.9919999837875366,0.022251583635807037,0.022251583635807037,1e-04,0.9275555610656738,1.1549028158187866,1.1549028158187866
631,0.9919999837875366,0.01937900297343731,0.01937900297343731,1e-04,0.9237777590751648,1.1617106199264526,1.1617106199264526
632,0.9900000095367432,0.022168075665831566,0.022168075665831566,1e-04,0.9233333468437195,1.1653494834899902,1.1653494834899902
633,0.9900000095367432,0.026697518303990364,0.026697518303990364,1e-04,0.9237777590751648,1.1675714254379272,1.1675714254379272
634,0.9879999756813049,0.027557210996747017,0.027557210996747017,1e-04,0.9266666769981384,1.165269374847412,1.165269374847412
635,0.9959999918937683,0.013082694262266159,0.013082694262266159,1e-04,0.9288889169692993,1.1631827354431152,1.1631827354431152
636,0.9919999837875366,0.014994239434599876,0.014994239434599876,1e-04,0.9308888912200928,1.1632835865020752,1.1632835865020752
637,0.9959999918937683,0.015831824392080307,0.015831824392080307,1e-04,0.933555543422699,1.1640355587005615,1.1640355587005615
638,0.9959999918937683,0.014028619974851608,0.014028619974851608,1e-04,0.933555543422699,1.1657142639160156,1.1657142639160156
639,0.9940000176429749,0.02247026190161705,0.02247026190161705,1e-04,0.9326666593551636,1.1677106618881226,1.1677106618881226
640,0.9860000014305115,0.030153904110193253,0.030153904110193253,1e-04,0.9282222390174866,1.1711441278457642,1.1711441278457642
641,0.9940000176429749,0.015386514365673065,0.015386514365673065,1e-04,0.9268888831138611,1.1749261617660522,1.1749261617660522
642,0.9919999837875366,0.022503502666950226,0.022503502666950226,1e-04,0.9255555272102356,1.1791285276412964,1.1791285276412964
643,0.9879999756813049,0.0233809482306242,0.0233809482306242,1e-04,0.9253333210945129,1.181426763534546,1.181426763534546
644,0.9919999837875366,0.021968375891447067,0.021968375891447067,1e-04,0.9262222051620483,1.1813136339187622,1.1813136339187622
645,0.9900000095367432,0.02493957430124283,0.02493957430124283,1e-04,0.9268888831138611,1.180216908454895,1.180216908454895
646,0.9879999756813049,0.025623975321650505,0.025623975321650505,1e-04,0.9266666769981384,1.1819987297058105,1.1819987297058105
647,0.9959999918937683,0.015616083517670631,0.015616083517670631,1e-04,0.9264444708824158,1.1836497783660889,1.1836497783660889
648,0.9900000095367432,0.022776896134018898,0.022776896134018898,1e-04,0.9262222051620483,1.185840129852295,1.185840129852295
649,0.9919999837875366,0.021872317418456078,0.021872317418456078,1e-04,0.925777792930603,1.1876758337020874,1.1876758337020874
650,0.9959999918937683,0.015895314514636993,0.015895314514636993,1e-04,0.9253333210945129,1.1896307468414307,1.1896307468414307
651,0.9959999918937683,0.015117629431188107,0.015117629431188107,1e-04,0.9255555272102356,1.1910629272460938,1.1910629272460938
652,0.9900000095367432,0.02587982267141342,0.02587982267141342,1e-04,0.9259999990463257,1.1913052797317505,1.1913052797317505
653,0.9919999837875366,0.019480587914586067,0.019480587914586067,1e-04,0.9264444708824158,1.1913983821868896,1.1913983821868896
654,0.9900000095367432,0.02291479893028736,0.02291479893028736,1e-04,0.9266666769981384,1.1917717456817627,1.1917717456817627
655,0.9879999756813049,0.021450642496347427,0.021450642496347427,1e-04,0.9266666769981384,1.1919158697128296,1.1919158697128296
656,0.9919999837875366,0.017598120495676994,0.017598120495676994,1e-04,0.9273333549499512,1.1907224655151367,1.1907224655151367
657,0.9919999837875366,0.019346168264746666,0.019346168264746666,1e-04,0.9271110892295837,1.1903289556503296,1.1903289556503296
658,0.9919999837875366,0.022978806868195534,0.022978806868195534,1e-04,0.9271110892295837,1.1897199153900146,1.1897199153900146
659,0.9919999837875366,0.020171962678432465,0.020171962678432465,1e-04,0.9275555610656738,1.190659523010254,1.190659523010254
660,0.9940000176429749,0.014464340172708035,0.014464340172708035,1e-04,0.9268888831138611,1.1925485134124756,1.1925485134124756
661,0.984000027179718,0.02851961739361286,0.02851961739361286,1e-04,0.9255555272102356,1.1933456659317017,1.1933456659317017
662,0.9919999837875366,0.01865929365158081,0.01865929365158081,1e-04,0.925777792930603,1.193695306777954,1.193695306777954
663,0.9919999837875366,0.01997280679643154,0.01997280679643154,1e-04,0.9275555610656738,1.190608024597168,1.190608024597168
664,0.9940000176429749,0.020769907161593437,0.020769907161593437,1e-04,0.9293333292007446,1.189716100692749,1.1897162199020386
665,0.9900000095367432,0.022441737353801727,0.022441737353801727,1e-04,0.9308888912200928,1.1885581016540527,1.1885581016540527
666,0.9879999756813049,0.01925419270992279,0.01925419270992279,1e-04,0.9313333630561829,1.188677191734314,1.188677191734314
667,0.9860000014305115,0.035231709480285645,0.035231709480285645,1e-04,0.9277777671813965,1.1909258365631104,1.1909258365631104
668,0.9919999837875366,0.03637970983982086,0.03637970983982086,1e-04,0.9237777590751648,1.1979074478149414,1.1979074478149414
669,0.9879999756813049,0.02838696911931038,0.02838696911931038,1e-04,0.9204444289207458,1.204292893409729,1.204292893409729
670,0.9919999837875366,0.021486788988113403,0.021486788988113403,1e-04,0.9191111326217651,1.2097795009613037,1.2097795009613037
671,0.9860000014305115,0.030578622594475746,0.030578622594475746,1e-04,0.9191111326217651,1.2116347551345825,1.2116347551345825
672,0.9900000095367432,0.034038104116916656,0.034038104116916656,1e-04,0.9188888669013977,1.2121950387954712,1.2121950387954712
673,0.9900000095367432,0.0295427143573761,0.0295427143573761,1e-04,0.9208889007568359,1.2068027257919312,1.2068027257919312
674,0.9940000176429749,0.017253654077649117,0.017253654077649117,1e-04,0.925777792930603,1.2005096673965454,1.2005096673965454
675,0.9940000176429749,0.02097976766526699,0.02097976766526699,1e-04,0.929111123085022,1.198100209236145,1.198100209236145
676,0.9959999918937683,0.018377743661403656,0.018377743661403656,1e-04,0.9308888912200928,1.1976981163024902,1.1976981163024902
677,0.9940000176429749,0.022338081151247025,0.022338081151247025,1e-04,0.9317777752876282,1.1967967748641968,1.1967967748641968
678,0.9900000095367432,0.01890202984213829,0.01890202984213829,1e-04,0.9304444193840027,1.1961350440979004,1.1961350440979004
679,0.9980000257492065,0.013123059645295143,0.013123059645295143,1e-04,0.9284444451332092,1.195066213607788,1.195066213607788
680,0.9919999837875366,0.021765921264886856,0.021765921264886856,1e-04,0.9248889088630676,1.1965841054916382,1.1965841054916382
681,0.9919999837875366,0.02094968408346176,0.02094968408346176,1e-04,0.9242222309112549,1.1984024047851562,1.1984024047851562
682,0.9980000257492065,0.013188687153160572,0.013188687153160572,1e-04,0.9237777590751648,1.1994770765304565,1.1994770765304565
683,0.9940000176429749,0.016690554097294807,0.016690554097294807,1e-04,0.9248889088630676,1.1967744827270508,1.1967744827270508
684,0.9879999756813049,0.027617597952485085,0.027617597952485085,1e-04,0.9271110892295837,1.1906743049621582,1.1906743049621582
685,0.9980000257492065,0.015958275645971298,0.015958275645971298,1e-04,0.9300000071525574,1.1867326498031616,1.1867326498031616
686,0.9900000095367432,0.023335475474596024,0.023335475474596024,1e-04,0.9346666932106018,1.185030221939087,1.185030221939087
687,0.9959999918937683,0.014304885640740395,0.014304885640740395,1e-04,0.9346666932106018,1.185146689414978,1.185146689414978
688,0.9919999837875366,0.019946502521634102,0.019946502521634102,1e-04,0.9348888993263245,1.185276746749878,1.185276746749878
689,0.9879999756813049,0.027227869257330894,0.027227869257330894,1e-04,0.9340000152587891,1.1843284368515015,1.1843284368515015
690,0.9879999756813049,0.020507343113422394,0.020507343113422394,1e-04,0.933555543422699,1.1832631826400757,1.1832631826400757
691,0.9919999837875366,0.02549002319574356,0.02549002319574356,1e-04,0.9273333549499512,1.1855485439300537,1.1855485439300537
692,0.9919999837875366,0.025878557935357094,0.025878557935357094,1e-04,0.9231111407279968,1.1908459663391113,1.1908459663391113
693,0.9940000176429749,0.018534231930971146,0.018534231930971146,1e-04,0.9197777509689331,1.1946687698364258,1.1946687698364258
694,0.9940000176429749,0.020024247467517853,0.020024247467517853,1e-04,0.9193333387374878,1.192233681678772,1.192233681678772
695,0.9940000176429749,0.0189109705388546,0.0189109705388546,1e-04,0.9213333129882812,1.1847368478775024,1.1847368478775024
696,0.9919999837875366,0.02345716394484043,0.02345716394484043,1e-04,0.9242222309112549,1.178879976272583,1.178879976272583
697,0.9919999837875366,0.022678498178720474,0.022678498178720474,1e-04,0.9286666512489319,1.1738388538360596,1.1738388538360596
698,0.9879999756813049,0.02663877233862877,0.02663877233862877,1e-04,0.9304444193840027,1.172263741493225,1.172263741493225
699,0.9879999756813049,0.030440477654337883,0.030440477654337883,1e-04,0.9297778010368347,1.1717909574508667,1.1717909574508667
700,0.9900000095367432,0.020831597968935966,0.020831597968935966,1e-04,0.9286666512489319,1.1721630096435547,1.1721630096435547
701,0.9940000176429749,0.01801518350839615,0.01801518350839615,1e-04,0.9251111149787903,1.174340009689331,1.174340009689331
702,0.9980000257492065,0.01102467905730009,0.01102467905730009,1e-04,0.9228888750076294,1.177007794380188,1.177007794380188
703,0.9919999837875366,0.02313118614256382,0.02313118614256382,1e-04,0.9228888750076294,1.1771128177642822,1.1771128177642822
704,0.9919999837875366,0.019596653059124947,0.019596653059124947,1e-04,0.9228888750076294,1.1776074171066284,1.1776074171066284
705,0.9959999918937683,0.011754454113543034,0.011754454113543034,1e-04,0.9233333468437195,1.176159143447876,1.1761590242385864
706,0.9940000176429749,0.020932868123054504,0.020932868123054504,1e-04,0.9248889088630676,1.1741185188293457,1.1741185188293457
707,0.9919999837875366,0.02189519628882408,0.02189519628882408,1e-04,0.925777792930603,1.173546314239502,1.173546314239502
708,0.9879999756813049,0.025758668780326843,0.025758668780326843,1e-04,0.9253333210945129,1.1759816408157349,1.1759816408157349
709,0.9959999918937683,0.016516346484422684,0.016516346484422684,1e-04,0.9248889088630676,1.178593635559082,1.178593635559082
710,1.0,0.01127419713884592,0.01127419713884592,1e-04,0.9246666431427002,1.1812469959259033,1.1812469959259033
711,0.9980000257492065,0.014341522008180618,0.014341522008180618,1e-04,0.9273333549499512,1.181576132774353,1.181576132774353
712,0.9959999918937683,0.013498203828930855,0.013498203828930855,1e-04,0.9275555610656738,1.1833921670913696,1.1833921670913696
713,0.9900000095367432,0.01787031628191471,0.01787031628191471,1e-04,0.9271110892295837,1.1857458353042603,1.1857458353042603
714,0.9900000095367432,0.021791163831949234,0.021791163831949234,1e-04,0.9273333549499512,1.1872743368148804,1.1872743368148804
715,0.9900000095367432,0.022230202332139015,0.022230202332139015,1e-04,0.9279999732971191,1.1896203756332397,1.1896203756332397
716,0.9900000095367432,0.028311284258961678,0.028311284258961678,1e-04,0.9277777671813965,1.1912890672683716,1.1912890672683716
717,0.9980000257492065,0.0132744200527668,0.0132744200527668,1e-04,0.9273333549499512,1.1933987140655518,1.1933987140655518
718,0.9879999756813049,0.02332458645105362,0.02332458645105362,1e-04,0.9266666769981384,1.1955968141555786,1.1955968141555786
719,0.9980000257492065,0.012970292940735817,0.012970292940735817,1e-04,0.9266666769981384,1.1981581449508667,1.1981581449508667
720,0.9940000176429749,0.011495319195091724,0.011495319195091724,1e-04,0.9264444708824158,1.2012763023376465,1.2012763023376465
721,0.9959999918937683,0.01677611470222473,0.01677611470222473,1e-04,0.9268888831138611,1.201664924621582,1.201664924621582
722,0.9980000257492065,0.009360741823911667,0.009360741823911667,1e-04,0.9273333549499512,1.202627420425415,1.202627420425415
723,0.9980000257492065,0.016828792169690132,0.016828792169690132,1e-04,0.9279999732971191,1.2036585807800293,1.2036585807800293
724,0.9940000176429749,0.011836664751172066,0.011836664751172066,1e-04,0.9300000071525574,1.2051340341567993,1.2051340341567993
725,0.9959999918937683,0.010711923241615295,0.010711923241615295,1e-04,0.9313333630561829,1.2068290710449219,1.2068290710449219
726,0.9980000257492065,0.01864406280219555,0.01864406280219555,1e-04,0.9319999814033508,1.2085347175598145,1.2085347175598145
727,0.9900000095367432,0.022576235234737396,0.022576235234737396,1e-04,0.9319999814033508,1.2101945877075195,1.2101945877075195
728,0.9919999837875366,0.02039550244808197,0.02039550244808197,1e-04,0.9293333292007446,1.2127305269241333,1.2127305269241333
729,0.9919999837875366,0.02219199761748314,0.02219199761748314,1e-04,0.9282222390174866,1.2147303819656372,1.2147303819656372
730,0.9980000257492065,0.011058996431529522,0.011058996431529522,1e-04,0.9271110892295837,1.2175118923187256,1.2175118923187256
731,0.9900000095367432,0.02336917258799076,0.02336917258799076,1e-04,0.9268888831138611,1.2198102474212646,1.2198102474212646
732,0.9940000176429749,0.019377976655960083,0.019377976655960083,1e-04,0.9246666431427002,1.223812460899353,1.223812460899353
733,0.9959999918937683,0.015114801935851574,0.015114801935851574,1e-04,0.9233333468437195,1.2258480787277222,1.2258480787277222
734,0.9959999918937683,0.01638289913535118,0.01638289913535118,1e-04,0.9233333468437195,1.2270941734313965,1.2270941734313965
735,0.9959999918937683,0.016885900869965553,0.016885900869965553,1e-04,0.9242222309112549,1.2280722856521606,1.2280722856521606
736,0.9980000257492065,0.012365513481199741,0.012365513481199741,1e-04,0.9244444370269775,1.2291070222854614,1.2291070222854614
737,0.9900000095367432,0.017828408628702164,0.017828408628702164,1e-04,0.9255555272102356,1.2292330265045166,1.2292330265045166
738,0.9900000095367432,0.02126420848071575,0.02126420848071575,1e-04,0.9264444708824158,1.2294912338256836,1.2294912338256836
739,0.9959999918937683,0.011000397615134716,0.011000397615134716,1e-04,0.9266666769981384,1.2298486232757568,1.2298486232757568
740,0.9919999837875366,0.01773817464709282,0.01773817464709282,1e-04,0.9266666769981384,1.2311184406280518,1.2311184406280518
741,0.9900000095367432,0.02574118971824646,0.02574118971824646,1e-04,0.9259999990463257,1.2334814071655273,1.2334814071655273
742,0.9900000095367432,0.023627493530511856,0.023627493530511856,1e-04,0.9251111149787903,1.2360681295394897,1.2360681295394897
743,0.9959999918937683,0.016408339142799377,0.016408339142799377,1e-04,0.9244444370269775,1.2387531995773315,1.2387531995773315
744,0.9900000095367432,0.021721839904785156,0.021721839904785156,1e-04,0.9246666431427002,1.2374138832092285,1.2374138832092285
745,0.9919999837875366,0.022006932646036148,0.022006932646036148,1e-04,0.9246666431427002,1.23463773727417,1.23463773727417
746,0.9959999918937683,0.015228522941470146,0.015228522941470146,1e-04,0.9271110892295837,1.231310248374939,1.231310248374939
747,0.9959999918937683,0.012942925095558167,0.012942925095558167,1e-04,0.9288889169692993,1.2300108671188354,1.2300108671188354
748,0.9940000176429749,0.018549887463450432,0.018549887463450432,1e-04,0.9282222390174866,1.2299388647079468,1.2299388647079468
749,0.9940000176429749,0.013170676305890083,0.013170676305890083,1e-04,0.9273333549499512,1.2300227880477905,1.2300227880477905
750,0.9919999837875366,0.016291849315166473,0.016291849315166473,1e-04,0.9253333210945129,1.231938123703003,1.231938123703003
751,0.9980000257492065,0.014774932526051998,0.014774932526051998,1e-04,0.9248889088630676,1.233207106590271,1.233207106590271
752,0.9940000176429749,0.017898734658956528,0.017898734658956528,1e-04,0.925777792930603,1.2324366569519043,1.2324366569519043
753,0.9919999837875366,0.01392240822315216,0.01392240822315216,1e-04,0.9264444708824158,1.2326980829238892,1.2326980829238892
754,0.9940000176429749,0.022293537855148315,0.022293537855148315,1e-04,0.9279999732971191,1.232134461402893,1.232134461402893
755,0.9879999756813049,0.025706883519887924,0.025706883519887924,1e-04,0.9275555610656738,1.2328863143920898,1.2328863143920898
756,0.9959999918937683,0.015010726638138294,0.015010726638138294,1e-04,0.9273333549499512,1.2344974279403687,1.2344974279403687
757,0.9919999837875366,0.020491620525717735,0.020491620525717735,1e-04,0.9271110892295837,1.2352488040924072,1.2352488040924072
758,0.9919999837875366,0.02300209179520607,0.02300209179520607,1e-04,0.9275555610656738,1.237087368965149,1.237087368965149
759,0.9959999918937683,0.011175613850355148,0.011175613850355148,1e-04,0.9259999990463257,1.2395931482315063,1.2395931482315063
760,0.9860000014305115,0.023286771029233932,0.023286771029233932,1e-04,0.9242222309112549,1.242215871810913,1.242215871810913
761,0.9980000257492065,0.011163430288434029,0.011163430288434029,1e-04,0.9271110892295837,1.2421162128448486,1.2421162128448486
762,0.9919999837875366,0.026911497116088867,0.026911497116088867,1e-04,0.9284444451332092,1.2420467138290405,1.2420467138290405
763,0.9959999918937683,0.019500859081745148,0.019500859081745148,1e-04,0.9284444451332092,1.2428010702133179,1.2428010702133179
764,0.9900000095367432,0.019188759848475456,0.019188759848475456,1e-04,0.9275555610656738,1.24446439743042,1.24446439743042
765,0.9940000176429749,0.023505771532654762,0.023505771532654762,1e-04,0.9259999990463257,1.245587706565857,1.245587706565857
766,0.9959999918937683,0.013895343989133835,0.013895343989133835,1e-04,0.9253333210945129,1.2471883296966553,1.2471883296966553
767,0.9940000176429749,0.03011169657111168,0.03011169657111168,1e-04,0.9253333210945129,1.248571515083313,1.248571515083313
768,0.9980000257492065,0.015332700684666634,0.015332700684666634,1e-04,0.9268888831138611,1.2469348907470703,1.2469348907470703
769,0.9879999756813049,0.023030178621411324,0.023030178621411324,1e-04,0.929111123085022,1.2460147142410278,1.2460147142410278
770,0.9959999918937683,0.009681537747383118,0.009681537747383118,1e-04,0.9304444193840027,1.246578335762024,1.246578335762024
771,0.9959999918937683,0.014369572512805462,0.014369572512805462,1e-04,0.9319999814033508,1.2470002174377441,1.2470002174377441
772,0.9980000257492065,0.010650626383721828,0.010650626383721828,1e-04,0.9311110973358154,1.2477627992630005,1.2477627992630005
773,0.9959999918937683,0.009937352500855923,0.009937352500855923,1e-04,0.9297778010368347,1.248831868171692,1.248831868171692
774,0.9919999837875366,0.017973924055695534,0.017973924055695534,1e-04,0.929111123085022,1.2506749629974365,1.2506749629974365
775,0.9959999918937683,0.019122393801808357,0.019122393801808357,1e-04,0.9264444708824158,1.253251075744629,1.253251075744629
776,1.0,0.010286391712725163,0.010286391712725163,1e-04,0.9246666431427002,1.2561005353927612,1.2561005353927612
777,0.9980000257492065,0.012917367741465569,0.012917367741465569,1e-04,0.9246666431427002,1.2581560611724854,1.2581560611724854
778,0.9940000176429749,0.01930372416973114,0.01930372416973114,1e-04,0.9248889088630676,1.2573926448822021,1.2573926448822021
779,0.9959999918937683,0.017432868480682373,0.017432868480682373,1e-04,0.9268888831138611,1.2558273077011108,1.2558273077011108
780,0.9959999918937683,0.01849435269832611,0.01849435269832611,1e-04,0.9286666512489319,1.2553304433822632,1.2553304433822632
781,0.9919999837875366,0.017014162614941597,0.017014162614941597,1e-04,0.9295555353164673,1.255150556564331,1.255150556564331
782,0.9940000176429749,0.016853926703333855,0.016853926703333855,1e-04,0.9300000071525574,1.2548688650131226,1.2548688650131226
783,0.9959999918937683,0.008756971918046474,0.008756971918046474,1e-04,0.9297778010368347,1.2553917169570923,1.2553917169570923
784,0.9879999756813049,0.02039262279868126,0.02039262279868126,1e-04,0.9293333292007446,1.2563542127609253,1.2563542127609253
785,0.9959999918937683,0.015109635889530182,0.015109635889530182,1e-04,0.93022221326828,1.256777286529541,1.256777286529541
786,0.9959999918937683,0.01231607049703598,0.01231607049703598,1e-04,0.93022221326828,1.2572330236434937,1.2572330236434937
787,0.9879999756813049,0.024280264973640442,0.024280264973640442,1e-04,0.93022221326828,1.2578010559082031,1.2578010559082031
788,0.9980000257492065,0.010464507155120373,0.010464507155120373,1e-04,0.9293333292007446,1.258802890777588,1.258802890777588
789,0.9919999837875366,0.02451380155980587,0.02451380155980587,1e-04,0.9264444708824158,1.2617005109786987,1.2617005109786987
790,0.9919999837875366,0.015346254222095013,0.015346254222095013,1e-04,0.9244444370269775,1.2657229900360107,1.2657229900360107
791,0.9940000176429749,0.01725299097597599,0.01725299097597599,1e-04,0.9251111149787903,1.263677954673767,1.263677954673767
792,0.9980000257492065,0.013220143504440784,0.013220143504440784,1e-04,0.9253333210945129,1.263031244277954,1.263031244277954
793,0.9980000257492065,0.012522942386567593,0.012522942386567593,1e-04,0.9253333210945129,1.2625620365142822,1.2625620365142822
794,0.9959999918937683,0.012263084761798382,0.012263084761798382,1e-04,0.9273333549499512,1.2614431381225586,1.2614431381225586
795,0.9879999756813049,0.019831357523798943,0.019831357523798943,1e-04,0.9275555610656738,1.2610424757003784,1.2610424757003784
796,0.9879999756813049,0.02337791584432125,0.02337791584432125,1e-04,0.9259999990463257,1.2630168199539185,1.2630168199539185
797,0.9940000176429749,0.014404479414224625,0.014404479414224625,1e-04,0.9255555272102356,1.2648694515228271,1.2648694515228271
798,0.9940000176429749,0.012361750937998295,0.012361750937998295,1e-04,0.9246666431427002,1.267724871635437,1.267724871635437
799,0.9919999837875366,0.015660738572478294,0.015660738572478294,1e-04,0.9228888750076294,1.271013617515564,1.271013617515564
800,0.9919999837875366,0.024799037724733353,0.024799037724733353,1e-04,0.9222221970558167,1.27279794216156,1.27279794216156
801,0.9940000176429749,0.018620580434799194,0.018620580434799194,1e-04,0.9244444370269775,1.2707984447479248,1.2707984447479248
802,0.9980000257492065,0.012692893855273724,0.012692893855273724,1e-04,0.9273333549499512,1.2668644189834595,1.2668644189834595
803,1.0,0.00810538325458765,0.00810538325458765,1e-04,0.9308888912200928,1.2654579877853394,1.2654579877853394
804,0.9959999918937683,0.014656716957688332,0.014656716957688332,1e-04,0.933555543422699,1.2680364847183228,1.2680364847183228
805,0.9900000095367432,0.021422559395432472,0.021422559395432472,1e-04,0.9353333115577698,1.2708841562271118,1.2708841562271118
806,0.9919999837875366,0.018614601343870163,0.018614601343870163,1e-04,0.9351111054420471,1.2734507322311401,1.2734507322311401
807,0.9940000176429749,0.020883770659565926,0.020883770659565926,1e-04,0.9326666593551636,1.2756885290145874,1.2756885290145874
808,0.9980000257492065,0.008281301707029343,0.008281301707029343,1e-04,0.9297778010368347,1.277510166168213,1.277510166168213
809,0.9940000176429749,0.02069753035902977,0.02069753035902977,1e-04,0.9277777671813965,1.2808585166931152,1.2808585166931152
810,0.9919999837875366,0.018990445882081985,0.018990445882081985,1e-04,0.9268888831138611,1.2827705144882202,1.2827705144882202
811,0.9879999756813049,0.0212832223623991,0.0212832223623991,1e-04,0.925777792930603,1.284225583076477,1.284225583076477
812,0.9980000257492065,0.007949789054691792,0.007949789054691792,1e-04,0.9264444708824158,1.2844232320785522,1.2844232320785522
813,1.0,0.008114460855722427,0.008114460855722427,1e-04,0.9268888831138611,1.2853299379348755,1.2853299379348755
814,0.9980000257492065,0.014970715157687664,0.014970715157687664,1e-04,0.9268888831138611,1.2866408824920654,1.2866408824920654
815,0.9919999837875366,0.014532173052430153,0.014532173052430153,1e-04,0.9266666769981384,1.2885500192642212,1.2885500192642212
816,0.9919999837875366,0.01650816574692726,0.01650816574692726,1e-04,0.9248889088630676,1.2904784679412842,1.2904784679412842
817,0.9940000176429749,0.023261239752173424,0.023261239752173424,1e-04,0.9242222309112549,1.2913413047790527,1.2913413047790527
818,0.9940000176429749,0.025477899238467216,0.025477899238467216,1e-04,0.9242222309112549,1.2910631895065308,1.2910631895065308
819,0.9940000176429749,0.018268926069140434,0.018268926069140434,1e-04,0.9224444627761841,1.2923038005828857,1.2923038005828857
820,0.9959999918937683,0.014622461050748825,0.014622461050748825,1e-04,0.9233333468437195,1.2905709743499756,1.2905709743499756
821,0.9900000095367432,0.021931640803813934,0.021931640803813934,1e-04,0.9244444370269775,1.2880539894104004,1.2880539894104004
822,0.9940000176429749,0.01739034615457058,0.01739034615457058,1e-04,0.9266666769981384,1.2847694158554077,1.2847694158554077
823,0.9940000176429749,0.01458786241710186,0.01458786241710186,1e-04,0.9275555610656738,1.2823114395141602,1.2823114395141602
824,0.9900000095367432,0.0258672833442688,0.0258672833442688,1e-04,0.9277777671813965,1.279592514038086,1.279592514038086
825,0.9980000257492065,0.009281055070459843,0.009281055070459843,1e-04,0.9277777671813965,1.277712345123291,1.277712345123291
826,0.9959999918937683,0.014608196914196014,0.014608196914196014,1e-04,0.9288889169692993,1.2762151956558228,1.2762151956558228
827,0.9959999918937683,0.014535488560795784,0.014535488560795784,1e-04,0.9288889169692993,1.276388168334961,1.276388168334961
828,0.9919999837875366,0.016559196636080742,0.016559196636080742,1e-04,0.9282222390174866,1.2766481637954712,1.2766481637954712
829,0.9940000176429749,0.014299994334578514,0.014299994334578514,1e-04,0.929111123085022,1.2756081819534302,1.2756081819534302
830,0.9980000257492065,0.011825540103018284,0.011825540103018284,1e-04,0.929111123085022,1.2734705209732056,1.2734705209732056
831,0.9900000095367432,0.02697368711233139,0.02697368711233139,1e-04,0.9306666851043701,1.271341323852539,1.271341323852539
832,1.0,0.008823283016681671,0.008823283016681671,1e-04,0.9340000152587891,1.2705484628677368,1.2705484628677368
833,0.9940000176429749,0.022240592166781425,0.022240592166781425,1e-04,0.9344444274902344,1.269940972328186,1.269940972328186
834,0.9940000176429749,0.015405194833874702,0.015405194833874702,1e-04,0.9324444532394409,1.2692216634750366,1.2692216634750366
835,0.9900000095367432,0.022456051781773567,0.022456051781773567,1e-04,0.9277777671813965,1.2703983783721924,1.2703983783721924
836,0.9959999918937683,0.014073220081627369,0.014073220081627369,1e-04,0.9251111149787903,1.2742245197296143,1.2742245197296143
837,0.9980000257492065,0.00788686890155077,0.00788686890155077,1e-04,0.921999990940094,1.2782206535339355,1.2782206535339355
838,0.9879999756813049,0.026629537343978882,0.026629537343978882,1e-04,0.9204444289207458,1.280821681022644,1.280821681022644
839,0.9980000257492065,0.011601215228438377,0.011601215228438377,1e-04,0.9191111326217651,1.281701922416687,1.281701922416687
840,0.9879999756813049,0.022438131272792816,0.022438131272792816,1e-04,0.918666660785675,1.2823177576065063,1.2823177576065063
841,0.9959999918937683,0.012768507935106754,0.012768507935106754,1e-04,0.9224444627761841,1.2772806882858276,1.2772806882858276
842,0.9980000257492065,0.012747811153531075,0.012747811153531075,1e-04,0.9253333210945129,1.2735244035720825,1.2735244035720825
843,0.9879999756813049,0.025032706558704376,0.025032706558704376,1e-04,0.9288889169692993,1.2723509073257446,1.2723509073257446
844,0.9919999837875366,0.01800677739083767,0.01800677739083767,1e-04,0.9273333549499512,1.2722536325454712,1.2722536325454712
845,0.9900000095367432,0.020383864641189575,0.020383864641189575,1e-04,0.9275555610656738,1.2721730470657349,1.2721730470657349
846,0.9940000176429749,0.016616927459836006,0.016616927459836006,1e-04,0.9268888831138611,1.2728625535964966,1.2728625535964966
847,0.9940000176429749,0.013611480593681335,0.013611480593681335,1e-04,0.9268888831138611,1.272682547569275,1.272682547569275
848,0.9959999918937683,0.0215067770332098,0.0215067770332098,1e-04,0.9271110892295837,1.2731961011886597,1.2731961011886597
849,0.9959999918937683,0.011158824898302555,0.011158824898302555,1e-04,0.9277777671813965,1.2732471227645874,1.2732471227645874
850,0.9919999837875366,0.01923985593020916,0.01923985593020916,1e-04,0.9255555272102356,1.2749699354171753,1.2749699354171753
851,0.9900000095367432,0.020679224282503128,0.020679224282503128,1e-04,0.9237777590751648,1.2775304317474365,1.2775304317474365
852,0.9940000176429749,0.011948289349675179,0.011948289349675179,1e-04,0.9233333468437195,1.2792940139770508,1.2792940139770508
853,0.9940000176429749,0.018888061866164207,0.018888061866164207,1e-04,0.9213333129882812,1.2795811891555786,1.2795811891555786
854,0.9940000176429749,0.01771189644932747,0.01771189644932747,1e-04,0.9208889007568359,1.2788416147232056,1.2788416147232056
855,0.9980000257492065,0.011423406191170216,0.011423406191170216,1e-04,0.9206666946411133,1.2781442403793335,1.2781442403793335
856,0.9919999837875366,0.01590796932578087,0.01590796932578087,1e-04,0.9242222309112549,1.2723054885864258,1.2723054885864258
857,0.9959999918937683,0.012816964648663998,0.012816964648663998,1e-04,0.9248889088630676,1.2686316967010498,1.2686316967010498
858,0.9879999756813049,0.027239300310611725,0.027239300310611725,1e-04,0.9277777671813965,1.264736533164978,1.264736533164978
859,0.9980000257492065,0.011963218450546265,0.011963218450546265,1e-04,0.9288889169692993,1.2639856338500977,1.2639856338500977
860,0.9959999918937683,0.01092542801052332,0.01092542801052332,1e-04,0.9288889169692993,1.2641513347625732,1.2641513347625732
861,0.9940000176429749,0.01270961482077837,0.01270961482077837,1e-04,0.9288889169692993,1.264485239982605,1.264485239982605
862,0.9980000257492065,0.01016171183437109,0.01016171183437109,1e-04,0.9284444451332092,1.2650372982025146,1.2650372982025146
863,0.9879999756813049,0.023287342861294746,0.023287342861294746,1e-04,0.9277777671813965,1.2666783332824707,1.2666783332824707
864,0.9940000176429749,0.013006377033889294,0.013006377033889294,1e-04,0.9251111149787903,1.2689743041992188,1.2689743041992188
865,0.9959999918937683,0.01821882463991642,0.01821882463991642,1e-04,0.9248889088630676,1.2708979845046997,1.2708979845046997
866,0.9919999837875366,0.01695089228451252,0.01695089228451252,1e-04,0.9231111407279968,1.2727768421173096,1.2727768421173096
867,1.0,0.011492624878883362,0.011492624878883362,1e-04,0.9228888750076294,1.2729945182800293,1.2729945182800293
868,0.9940000176429749,0.018115459010004997,0.018115459010004997,1e-04,0.9240000247955322,1.2726738452911377,1.2726738452911377
869,0.9919999837875366,0.017122521996498108,0.017122521996498108,1e-04,0.9255555272102356,1.2706869840621948,1.2706869840621948
870,0.9940000176429749,0.014682444743812084,0.014682444743812084,1e-04,0.925777792930603,1.2695730924606323,1.2695730924606323
871,0.9959999918937683,0.012908978387713432,0.012908978387713432,1e-04,0.9268888831138611,1.2693017721176147,1.2693017721176147
872,0.9940000176429749,0.013921493664383888,0.013921493664383888,1e-04,0.925777792930603,1.2705631256103516,1.2705631256103516
873,0.9940000176429749,0.017360400408506393,0.017360400408506393,1e-04,0.9248889088630676,1.2723040580749512,1.2723040580749512
874,0.9980000257492065,0.00928725115954876,0.00928725115954876,1e-04,0.9246666431427002,1.2726067304611206,1.2726067304611206
875,0.9919999837875366,0.016241779550909996,0.016241779550909996,1e-04,0.9240000247955322,1.2754826545715332,1.2754826545715332
876,0.9940000176429749,0.013206683099269867,0.013206683099269867,1e-04,0.9237777590751648,1.2783583402633667,1.2783583402633667
877,0.9959999918937683,0.01645323820412159,0.01645323820412159,1e-04,0.9235555529594421,1.2802568674087524,1.2802568674087524
878,0.9959999918937683,0.013795597478747368,0.013795597478747368,1e-04,0.9233333468437195,1.2808098793029785,1.2808098793029785
879,0.9959999918937683,0.011596654541790485,0.011596654541790485,1e-04,0.9242222309112549,1.2808551788330078,1.2808551788330078
880,0.9940000176429749,0.014969585463404655,0.014969585463404655,1e-04,0.9244444370269775,1.2809761762619019,1.2809761762619019
881,0.9980000257492065,0.01220868993550539,0.01220868993550539,1e-04,0.9268888831138611,1.280495047569275,1.280495047569275
882,0.9980000257492065,0.00717590469866991,0.00717590469866991,1e-04,0.9297778010368347,1.2809321880340576,1.2809321880340576
883,0.9860000014305115,0.027396464720368385,0.027396464720368385,1e-04,0.9297778010368347,1.2825111150741577,1.2825111150741577
884,0.9980000257492065,0.012333638966083527,0.012333638966083527,1e-04,0.9288889169692993,1.2843706607818604,1.2843706607818604
885,0.9980000257492065,0.009893405251204967,0.009893405251204967,1e-04,0.9277777671813965,1.2869244813919067,1.2869244813919067
886,0.9959999918937683,0.010852217674255371,0.010852217674255371,1e-04,0.925777792930603,1.2897084951400757,1.2897084951400757
887,0.9919999837875366,0.017600879073143005,0.017600879073143005,1e-04,0.9240000247955322,1.2923964262008667,1.2923964262008667
888,0.9940000176429749,0.019922727718949318,0.019922727718949318,1e-04,0.9242222309112549,1.2937078475952148,1.2937078475952148
889,0.9980000257492065,0.008312879130244255,0.008312879130244255,1e-04,0.9240000247955322,1.2951539754867554,1.2951539754867554
890,0.9980000257492065,0.00705793546512723,0.00705793546512723,1e-04,0.9240000247955322,1.2965182065963745,1.2965182065963745
891,0.9959999918937683,0.014691829681396484,0.014691829681396484,1e-04,0.9235555529594421,1.2991341352462769,1.2991341352462769
892,0.9940000176429749,0.010918107815086842,0.010918107815086842,1e-04,0.9233333468437195,1.300781488418579,1.300781488418579
893,0.9980000257492065,0.015420528128743172,0.015420528128743172,1e-04,0.9240000247955322,1.3020683526992798,1.3020683526992798
894,0.9980000257492065,0.010514546185731888,0.010514546185731888,1e-04,0.9253333210945129,1.3014999628067017,1.3014999628067017
895,0.9959999918937683,0.01463311817497015,0.01463311817497015,1e-04,0.9271110892295837,1.3012480735778809,1.3012480735778809
896,0.9800000190734863,0.028151802718639374,0.028151802718639374,1e-04,0.9266666769981384,1.3029108047485352,1.3029108047485352
897,0.9959999918937683,0.01169634610414505,0.01169634610414505,1e-04,0.925777792930603,1.304159164428711,1.304159164428711
898,0.9959999918937683,0.009693484753370285,0.009693484753370285,1e-04,0.9244444370269775,1.3065367937088013,1.3065367937088013
899,0.9980000257492065,0.006520001217722893,0.006520001217722893,1e-04,0.9242222309112549,1.3091670274734497,1.3091670274734497
900,0.9980000257492065,0.013094737194478512,0.013094737194478512,1e-04,0.9235555529594421,1.3118834495544434,1.3118834495544434
901,0.9900000095367432,0.0152263343334198,0.0152263343334198,1e-04,0.9235555529594421,1.3155313730239868,1.3155313730239868
902,0.9940000176429749,0.016376709565520287,0.016376709565520287,1e-04,0.9228888750076294,1.319820761680603,1.319820761680603
903,0.9959999918937683,0.012057906948029995,0.012057906948029995,1e-04,0.9222221970558167,1.3227484226226807,1.3227484226226807
904,0.9959999918937683,0.013021099381148815,0.013021099381148815,1e-04,0.9233333468437195,1.322960615158081,1.322960615158081
905,0.9959999918937683,0.015703421086072922,0.015703421086072922,1e-04,0.9279999732971191,1.3219374418258667,1.3219374418258667
906,0.9959999918937683,0.009757290594279766,0.009757290594279766,1e-04,0.9304444193840027,1.3234546184539795,1.3234546184539795
907,0.9980000257492065,0.009474925696849823,0.009474925696849823,1e-04,0.9311110973358154,1.3261470794677734,1.3261470794677734
908,0.9980000257492065,0.007747565396130085,0.007747565396130085,1e-04,0.9313333630561829,1.3287036418914795,1.3287036418914795
909,0.9980000257492065,0.009943836368620396,0.009943836368620396,1e-04,0.9304444193840027,1.3306221961975098,1.3306221961975098
910,0.9940000176429749,0.019526299089193344,0.019526299089193344,1e-04,0.9288889169692993,1.3330010175704956,1.3330010175704956
911,0.9980000257492065,0.008130581118166447,0.008130581118166447,1e-04,0.9264444708824158,1.3361564874649048,1.3361564874649048
912,0.9940000176429749,0.014571813866496086,0.014571813866496086,1e-04,0.9242222309112549,1.339097499847412,1.339097499847412
913,0.9959999918937683,0.012928350828588009,0.012928350828588009,1e-04,0.9237777590751648,1.3425034284591675,1.3425034284591675
914,0.9940000176429749,0.016383271664381027,0.016383271664381027,1e-04,0.9215555787086487,1.346651554107666,1.346651554107666
915,0.9980000257492065,0.011324765160679817,0.011324765160679817,1e-04,0.9193333387374878,1.349133849143982,1.349133849143982
916,0.9919999837875366,0.021632328629493713,0.021632328629493713,1e-04,0.9213333129882812,1.3447567224502563,1.3447567224502563
917,0.9959999918937683,0.014428965747356415,0.014428965747356415,1e-04,0.9242222309112549,1.3387176990509033,1.3387176990509033
918,0.9959999918937683,0.010493484325706959,0.010493484325706959,1e-04,0.9273333549499512,1.3345946073532104,1.3345946073532104
919,1.0,0.0062073939479887486,0.0062073939479887486,1e-04,0.9297778010368347,1.3326808214187622,1.3326808214187622
920,0.9940000176429749,0.019426776096224785,0.019426776096224785,1e-04,0.93022221326828,1.3312227725982666,1.3312227725982666
921,0.9940000176429749,0.015279430896043777,0.015279430896043777,1e-04,0.9293333292007446,1.3320289850234985,1.3320289850234985
922,0.9959999918937683,0.011433389969170094,0.011433389969170094,1e-04,0.9273333549499512,1.3341495990753174,1.3341495990753174
923,0.9959999918937683,0.01350785419344902,0.01350785419344902,1e-04,0.9233333468437195,1.3379069566726685,1.3379069566726685
924,0.9879999756813049,0.02716638706624508,0.02716638706624508,1e-04,0.9235555529594421,1.3382712602615356,1.3382712602615356
925,0.9980000257492065,0.007945242337882519,0.007945242337882519,1e-04,0.9237777590751648,1.3373183012008667,1.3373183012008667
926,0.9940000176429749,0.015173283405601978,0.015173283405601978,1e-04,0.9235555529594421,1.3376219272613525,1.3376219272613525
927,1.0,0.007972023449838161,0.007972023449838161,1e-04,0.9237777590751648,1.337138056755066,1.337138056755066
928,1.0,0.005905757658183575,0.005905757658183575,1e-04,0.9251111149787903,1.3358128070831299,1.3358128070831299
929,0.9919999837875366,0.017295286059379578,0.017295286059379578,1e-04,0.9253333210945129,1.3358873128890991,1.3358873128890991
930,0.9959999918937683,0.01936160959303379,0.01936160959303379,1e-04,0.9215555787086487,1.3394005298614502,1.3394005298614502
931,1.0,0.006341773550957441,0.006341773550957441,1e-04,0.9184444546699524,1.343122124671936,1.343122124671936
932,0.9940000176429749,0.01661299169063568,0.01661299169063568,1e-04,0.9179999828338623,1.3443666696548462,1.3443666696548462
933,0.9959999918937683,0.013805876486003399,0.013805876486003399,1e-04,0.9193333387374878,1.3444665670394897,1.3444665670394897
934,0.9959999918937683,0.012970115058124065,0.012970115058124065,1e-04,0.9226666688919067,1.344295859336853,1.344295859336853
935,0.9959999918937683,0.01134474016726017,0.01134474016726017,1e-04,0.9242222309112549,1.3440834283828735,1.3440834283828735
936,1.0,0.007103338371962309,0.007103338371962309,1e-04,0.9282222390174866,1.344556212425232,1.344556212425232
937,0.9980000257492065,0.009527389891445637,0.009527389891445637,1e-04,0.9297778010368347,1.3463032245635986,1.3463032245635986
938,0.9919999837875366,0.02177225425839424,0.02177225425839424,1e-04,0.9300000071525574,1.3481730222702026,1.3481730222702026
939,0.9980000257492065,0.009878981858491898,0.009878981858491898,1e-04,0.93022221326828,1.350161075592041,1.350161075592041
940,0.9900000095367432,0.01792878471314907,0.01792878471314907,1e-04,0.9268888831138611,1.3523885011672974,1.3523885011672974
941,0.9940000176429749,0.013289280235767365,0.013289280235767365,1e-04,0.9248889088630676,1.3537434339523315,1.3537434339523315
942,0.9980000257492065,0.012321950867772102,0.012321950867772102,1e-04,0.9251111149787903,1.352820634841919,1.352820634841919
943,0.9940000176429749,0.022066760808229446,0.022066760808229446,1e-04,0.9253333210945129,1.3523536920547485,1.3523536920547485
944,0.9980000257492065,0.010102975182235241,0.010102975182235241,1e-04,0.9275555610656738,1.3511486053466797,1.3511486053466797
945,0.9940000176429749,0.0210392028093338,0.0210392028093338,1e-04,0.9282222390174866,1.3511124849319458,1.3511124849319458
946,0.9959999918937683,0.016067922115325928,0.016067922115325928,1e-04,0.9293333292007446,1.3514132499694824,1.3514132499694824
947,0.9959999918937683,0.009612980298697948,0.009612980298697948,1e-04,0.9300000071525574,1.3523075580596924,1.3523075580596924
