epoch,accuracy,categorical_crossentropy,loss,lr,val_accuracy,val_categorical_crossentropy,val_loss
0,0.2160000056028366,1.6104284524917603,1.6104284524917603,0.001,0.8364444375038147,0.9472915530204773,0.9472915530204773
1,0.7839999794960022,0.8958976864814758,0.8958976864814758,0.001,0.7868888974189758,0.6614501476287842,0.6614501476287842
2,0.7559999823570251,0.6628938913345337,0.6628938913345337,0.001,0.9077777862548828,0.5692702531814575,0.5692702531814575
3,0.9200000166893005,0.5703262686729431,0.5703262686729431,0.001,0.9148889183998108,0.5269444584846497,0.5269444584846497
4,0.9200000166893005,0.5272365808486938,0.5272365808486938,0.001,0.9153333306312561,0.47345593571662903,0.47345593571662903
5,0.921999990940094,0.4721336364746094,0.4721336364746094,0.001,0.9173333048820496,0.3989628851413727,0.3989628851413727
6,0.9259999990463257,0.38702741265296936,0.38702741265296936,0.001,0.9153333306312561,0.3361304998397827,0.3361304998397827
7,0.9240000247955322,0.3116920292377472,0.3116920292377472,0.001,0.9155555367469788,0.31010571122169495,0.31010571122169495
8,0.9259999990463257,0.26751410961151123,0.26751410961151123,0.001,0.9179999828338623,0.32624995708465576,0.32624995708465576
9,0.9279999732971191,0.2748367190361023,0.2748367190361023,0.001,0.9162222146987915,0.34134694933891296,0.34134694933891296
10,0.921999990940094,0.28310102224349976,0.28310102224349976,0.001,0.9168888926506042,0.32630354166030884,0.32630354166030884
11,0.921999990940094,0.2660823464393616,0.2660823464393616,0.001,0.9215555787086487,0.29867732524871826,0.29867732524871826
12,0.9259999990463257,0.23328448832035065,0.23328448832035065,0.001,0.9251111149787903,0.28161633014678955,0.28161633014678955
13,0.9399999976158142,0.2117798626422882,0.2117798626422882,0.001,0.9268888831138611,0.2822883725166321,0.2822883725166321
14,0.9380000233650208,0.20054809749126434,0.20054809749126434,0.001,0.9277777671813965,0.2934456765651703,0.2934456765651703
15,0.9419999718666077,0.20787468552589417,0.20787468552589417,0.001,0.9271110892295837,0.30292370915412903,0.30292370915412903
16,0.949999988079071,0.20879195630550385,0.20879195630550385,0.001,0.9282222390174866,0.30534568428993225,0.30534568428993225
17,0.9440000057220459,0.21805348992347717,0.21805348992347717,0.001,0.9300000071525574,0.30015242099761963,0.30015242099761963
18,0.9559999704360962,0.19885294139385223,0.19885294139385223,0.001,0.9319999814033508,0.2916359603404999,0.2916359603404999
19,0.9599999785423279,0.17317242920398712,0.17317242920398712,0.001,0.9328888654708862,0.2837457060813904,0.2837457060813904
20,0.9599999785423279,0.169593945145607,0.169593945145607,0.001,0.9337777495384216,0.27811527252197266,0.27811527252197266
21,0.9539999961853027,0.16581042110919952,0.16581042110919952,0.001,0.9344444274902344,0.27539002895355225,0.27539002895355225
22,0.9559999704360962,0.1551903635263443,0.1551903635263443,0.001,0.9344444274902344,0.2749163508415222,0.2749163508415222
23,0.9559999704360962,0.1523452252149582,0.1523452252149582,0.001,0.9362221956253052,0.27401116490364075,0.27401116490364075
24,0.9580000042915344,0.14762812852859497,0.14762812852859497,0.001,0.9371111392974854,0.2723408341407776,0.2723408341407776
25,0.9620000123977661,0.1364062875509262,0.1364062875509262,0.001,0.9382222294807434,0.27271121740341187,0.27271121740341187
26,0.9599999785423279,0.13069286942481995,0.13069286942481995,0.001,0.9357777833938599,0.2775150537490845,0.2775150537490845
27,0.9539999961853027,0.12921570241451263,0.12921570241451263,0.001,0.9337777495384216,0.2847523093223572,0.2847523093223572
28,0.9620000123977661,0.13234880566596985,0.13234880566596985,0.001,0.9344444274902344,0.2909162640571594,0.2909162640571594
29,0.9599999785423279,0.1307121068239212,0.1307121068239212,0.001,0.9366666674613953,0.2945108711719513,0.2945108711719513
30,0.9599999785423279,0.11878780275583267,0.11878780275583267,0.001,0.9368888735771179,0.2977375090122223,0.2977375090122223
31,0.9639999866485596,0.11742859333753586,0.11742859333753586,0.001,0.9375555515289307,0.3037773370742798,0.3037773370742798
32,0.9660000205039978,0.11380437016487122,0.11380437016487122,0.001,0.9371111392974854,0.3120728135108948,0.3120728135108948
33,0.9679999947547913,0.10618207603693008,0.10618207603693008,0.001,0.9377777576446533,0.3177705705165863,0.3177705705165863
34,0.9660000205039978,0.11095670610666275,0.11095670610666275,0.001,0.9380000233650208,0.32139280438423157,0.32139280438423157
35,0.9700000286102295,0.09691789001226425,0.09691789001226425,0.001,0.9375555515289307,0.3272898197174072,0.3272898197174072
36,0.972000002861023,0.0980442464351654,0.0980442464351654,0.001,0.9377777576446533,0.33546748757362366,0.33546748757362366
37,0.9739999771118164,0.09818621724843979,0.09818621724843979,0.001,0.9375555515289307,0.34260499477386475,0.34260499477386475
38,0.9660000205039978,0.10959725826978683,0.10959725826978683,0.001,0.9388889074325562,0.3471249043941498,0.3471249043941498
39,0.972000002861023,0.10150972008705139,0.10150972008705139,0.001,0.9368888735771179,0.35172146558761597,0.35172146558761597
40,0.9700000286102295,0.09268153458833694,0.09268153458833694,0.001,0.9357777833938599,0.3578760623931885,0.3578760623931885
41,0.9679999947547913,0.10285767912864685,0.10285767912864685,0.001,0.9351111054420471,0.3651350736618042,0.3651350736618042
42,0.9679999947547913,0.09161980450153351,0.09161980450153351,0.001,0.9348888993263245,0.3685225546360016,0.3685225546360016
43,0.9660000205039978,0.09894382208585739,0.09894382208585739,0.001,0.9368888735771179,0.372555673122406,0.372555673122406
44,0.9700000286102295,0.08503632992506027,0.08503632992506027,0.001,0.9377777576446533,0.37953805923461914,0.37953805923461914
45,0.9660000205039978,0.10066583007574081,0.10066583007574081,0.001,0.9368888735771179,0.38453221321105957,0.38453221321105957
46,0.9700000286102295,0.10027637332677841,0.10027637332677841,0.001,0.9337777495384216,0.3898123502731323,0.3898123502731323
47,0.972000002861023,0.08704408258199692,0.08704408258199692,0.001,0.9326666593551636,0.3953664004802704,0.3953664004802704
48,0.9679999947547913,0.08347997069358826,0.08347997069358826,0.001,0.9346666932106018,0.3993649482727051,0.3993649482727051
49,0.9700000286102295,0.08749878406524658,0.08749878406524658,0.001,0.9368888735771179,0.40144065022468567,0.40144065022468567
50,0.9739999771118164,0.07864278554916382,0.07864278554916382,0.001,0.9380000233650208,0.40482184290885925,0.40482184290885925
51,0.972000002861023,0.08270955085754395,0.08270955085754395,0.001,0.9375555515289307,0.407867968082428,0.407867968082428
52,0.9700000286102295,0.08285820484161377,0.08285820484161377,0.001,0.9366666674613953,0.4117288291454315,0.4117288291454315
53,0.9760000109672546,0.07861456274986267,0.07861456274986267,0.001,0.9353333115577698,0.41641905903816223,0.41641905903816223
54,0.9779999852180481,0.0789056122303009,0.0789056122303009,0.001,0.9371111392974854,0.4188251793384552,0.4188251793384552
55,0.9760000109672546,0.08522553741931915,0.08522553741931915,0.001,0.9391111135482788,0.4208463132381439,0.4208463132381439
56,0.9779999852180481,0.07676056027412415,0.07676056027412415,0.001,0.9393333196640015,0.4239308834075928,0.4239308834075928
57,0.9760000109672546,0.07561491429805756,0.07561491429805756,0.001,0.9388889074325562,0.4270358681678772,0.4270358681678772
58,0.9739999771118164,0.08516085147857666,0.08516085147857666,0.001,0.9382222294807434,0.43047016859054565,0.43047016859054565
59,0.9779999852180481,0.08038969337940216,0.08038969337940216,0.001,0.937333345413208,0.4348316788673401,0.4348316788673401
60,0.9760000109672546,0.07594845443964005,0.07594845443964005,0.001,0.9368888735771179,0.4399346709251404,0.4399346709251404
61,0.9739999771118164,0.08056269586086273,0.08056269586086273,0.001,0.9377777576446533,0.4447682499885559,0.4447682499885559
62,0.9819999933242798,0.0753532126545906,0.0753532126545906,0.001,0.9382222294807434,0.4503058195114136,0.4503058195114136
63,0.9700000286102295,0.07961130887269974,0.07961130887269974,0.001,0.9382222294807434,0.4587484896183014,0.4587484896183014
64,0.9760000109672546,0.0740419253706932,0.0740419253706932,0.001,0.9386666417121887,0.4679747223854065,0.4679747223854065
65,0.972000002861023,0.07491375505924225,0.07491375505924225,0.001,0.9377777576446533,0.4791817367076874,0.4791817367076874
66,0.9760000109672546,0.07669617235660553,0.07669617235660553,0.001,0.9388889074325562,0.48590826988220215,0.48590826988220215
67,0.9779999852180481,0.07409066706895828,0.07409066706895828,0.001,0.9386666417121887,0.4941392242908478,0.4941392242908478
68,0.9779999852180481,0.06504415720701218,0.06504415720701218,0.001,0.9355555772781372,0.5079997777938843,0.5079997777938843
69,0.9800000190734863,0.06653808802366257,0.06653808802366257,0.001,0.9362221956253052,0.5165241956710815,0.5165241956710815
70,0.9700000286102295,0.06959711015224457,0.06959711015224457,0.001,0.9388889074325562,0.5269718170166016,0.5269718170166016
71,0.9739999771118164,0.07197348773479462,0.07197348773479462,0.001,0.9386666417121887,0.5377459526062012,0.5377459526062012
72,0.9760000109672546,0.06941497325897217,0.06941497325897217,0.001,0.9357777833938599,0.5501520037651062,0.5501520037651062
73,0.9779999852180481,0.05996999144554138,0.05996999144554138,0.001,0.9353333115577698,0.5588650107383728,0.5588650107383728
74,0.9800000190734863,0.06442173570394516,0.06442173570394516,0.001,0.9393333196640015,0.5622256398200989,0.5622256398200989
75,0.972000002861023,0.07290737330913544,0.07290737330913544,0.0005,0.9391111135482788,0.5632275938987732,0.5632275938987732
76,0.9760000109672546,0.0727696493268013,0.0727696493268013,0.0005,0.9377777576446533,0.5626545548439026,0.5626545548439026
77,0.9760000109672546,0.07241671532392502,0.07241671532392502,0.0005,0.9362221956253052,0.5681260228157043,0.5681260228157043
78,0.9760000109672546,0.07301091402769089,0.07301091402769089,0.0005,0.9364444613456726,0.5667015910148621,0.5667015910148621
79,0.9660000205039978,0.07077278196811676,0.07077278196811676,0.0005,0.9388889074325562,0.5603105425834656,0.5603105425834656
80,0.9760000109672546,0.069966621696949,0.069966621696949,0.0005,0.9393333196640015,0.5589872002601624,0.5589872002601624
81,0.9700000286102295,0.07330526411533356,0.07330526411533356,0.0005,0.9388889074325562,0.5555611848831177,0.5555611848831177
82,0.9779999852180481,0.06870250403881073,0.06870250403881073,0.0005,0.9375555515289307,0.5532940030097961,0.5532940030097961
83,0.9819999933242798,0.06522306799888611,0.06522306799888611,0.0005,0.9364444613456726,0.5544994473457336,0.5544994473457336
84,0.972000002861023,0.06662587821483612,0.06662587821483612,0.0005,0.937333345413208,0.5489389896392822,0.5489389896392822
85,0.9760000109672546,0.06735552102327347,0.06735552102327347,0.0005,0.9386666417121887,0.5466135144233704,0.5466135144233704
86,0.9800000190734863,0.06505700945854187,0.06505700945854187,0.0005,0.9388889074325562,0.5466344356536865,0.5466344356536865
87,0.9739999771118164,0.07800541818141937,0.07800541818141937,0.0005,0.9393333196640015,0.5478896498680115,0.5478896498680115
88,0.9800000190734863,0.06294279545545578,0.06294279545545578,0.0005,0.9368888735771179,0.5521323680877686,0.5521323680877686
89,0.9779999852180481,0.06621799618005753,0.06621799618005753,0.0005,0.9362221956253052,0.5568544864654541,0.5568544864654541
90,0.9800000190734863,0.06380777806043625,0.06380777806043625,0.0005,0.9368888735771179,0.5566961765289307,0.5566961765289307
91,0.972000002861023,0.06921487301588058,0.06921487301588058,0.0005,0.9393333196640015,0.5557003021240234,0.5557003021240234
92,0.9779999852180481,0.061897650361061096,0.061897650361061096,0.0005,0.9388889074325562,0.5579184293746948,0.5579184293746948
93,0.9760000109672546,0.0697178915143013,0.0697178915143013,0.0005,0.9393333196640015,0.5618831515312195,0.5618831515312195
94,0.9819999933242798,0.0598001629114151,0.0598001629114151,0.0005,0.9388889074325562,0.5657936334609985,0.5657936334609985
95,0.9779999852180481,0.06735405325889587,0.06735405325889587,0.0005,0.9380000233650208,0.5685670375823975,0.5685670375823975
96,0.972000002861023,0.060292016714811325,0.060292016714811325,0.0005,0.937333345413208,0.5724897980690002,0.5724897980690002
97,0.9779999852180481,0.06241120770573616,0.06241120770573616,0.0005,0.9353333115577698,0.5766637325286865,0.5766637325286865
98,0.972000002861023,0.06922313570976257,0.06922313570976257,0.0005,0.9357777833938599,0.5796813368797302,0.5796813368797302
99,0.9739999771118164,0.06200428307056427,0.06200428307056427,0.0005,0.9371111392974854,0.5834940075874329,0.5834940075874329
100,0.9760000109672546,0.0681561678647995,0.0681561678647995,0.0005,0.937333345413208,0.5884937047958374,0.5884937047958374
101,0.9760000109672546,0.06443054974079132,0.06443054974079132,0.0005,0.9375555515289307,0.5934975743293762,0.5934975743293762
102,0.9760000109672546,0.06010054796934128,0.06010054796934128,0.0005,0.9377777576446533,0.5981272459030151,0.5981272459030151
103,0.9800000190734863,0.06605330109596252,0.06605330109596252,0.0005,0.9380000233650208,0.6033600568771362,0.6033600568771362
104,0.9779999852180481,0.06099095195531845,0.06099095195531845,0.0005,0.9380000233650208,0.6077920794487,0.6077920794487
105,0.9819999933242798,0.06310128420591354,0.06310128420591354,0.0005,0.9388889074325562,0.6108134984970093,0.6108134984970093
106,0.9779999852180481,0.06607584655284882,0.06607584655284882,0.0005,0.9384444355964661,0.6143450140953064,0.6143450140953064
107,0.9800000190734863,0.06148720532655716,0.06148720532655716,0.0005,0.9375555515289307,0.6191200017929077,0.6191200017929077
108,0.9800000190734863,0.052653420716524124,0.052653420716524124,0.0005,0.9375555515289307,0.6218979358673096,0.6218979358673096
109,0.9800000190734863,0.059748534113168716,0.059748534113168716,0.0005,0.9377777576446533,0.6239277124404907,0.6239277124404907
110,0.9819999933242798,0.06724047660827637,0.06724047660827637,0.0005,0.9382222294807434,0.6246700882911682,0.6246700882911682
111,0.9819999933242798,0.057949185371398926,0.057949185371398926,0.0005,0.9380000233650208,0.6262617111206055,0.6262617111206055
112,0.9779999852180481,0.05308954790234566,0.05308954790234566,0.0005,0.9368888735771179,0.6303462386131287,0.6303462386131287
113,0.9779999852180481,0.05668306350708008,0.05668306350708008,0.0005,0.9357777833938599,0.6347832083702087,0.6347832083702087
114,0.9800000190734863,0.059682104736566544,0.059682104736566544,0.0005,0.9368888735771179,0.6342775821685791,0.6342775821685791
115,0.9800000190734863,0.05999809503555298,0.05999809503555298,0.0005,0.9388889074325562,0.6341695189476013,0.6341695189476013
116,0.9779999852180481,0.0582820363342762,0.0582820363342762,0.0005,0.9380000233650208,0.6370249390602112,0.6370249390602112
117,0.9760000109672546,0.06041012331843376,0.06041012331843376,0.0005,0.9366666674613953,0.6408647894859314,0.6408647894859314
118,0.9760000109672546,0.060637082904577255,0.060637082904577255,0.0005,0.9359999895095825,0.6437468528747559,0.6437468528747559
119,0.9800000190734863,0.051421038806438446,0.051421038806438446,0.0005,0.9368888735771179,0.6435346603393555,0.6435346603393555
120,0.9800000190734863,0.05349314585328102,0.05349314585328102,0.0005,0.9368888735771179,0.6447751522064209,0.6447751522064209
121,0.9779999852180481,0.06661548465490341,0.06661548465490341,0.0005,0.9362221956253052,0.6468195915222168,0.6468195915222168
122,0.9819999933242798,0.061690058559179306,0.061690058559179306,0.0005,0.9346666932106018,0.6493250727653503,0.6493250727653503
123,0.9819999933242798,0.05985630303621292,0.05985630303621292,0.0005,0.9344444274902344,0.6489940881729126,0.6489940881729126
124,0.9819999933242798,0.05536893382668495,0.05536893382668495,0.0005,0.9366666674613953,0.6484059691429138,0.6484059691429138
125,0.9779999852180481,0.06012626737356186,0.06012626737356186,0.00025,0.9368888735771179,0.6478179097175598,0.6478179097175598
126,0.9779999852180481,0.057131409645080566,0.057131409645080566,0.00025,0.9368888735771179,0.6474491357803345,0.6474491357803345
127,0.9800000190734863,0.0503203384578228,0.0503203384578228,0.00025,0.9359999895095825,0.6485949158668518,0.6485949158668518
128,0.984000027179718,0.048847366124391556,0.048847366124391556,0.00025,0.9331111311912537,0.6512623429298401,0.6512623429298401
129,0.9860000014305115,0.0496671088039875,0.0496671088039875,0.00025,0.9337777495384216,0.6522789001464844,0.6522789001464844
130,0.9819999933242798,0.05334920436143875,0.05334920436143875,0.00025,0.9359999895095825,0.6515306234359741,0.6515306234359741
131,0.9760000109672546,0.058785293251276016,0.058785293251276016,0.00025,0.9371111392974854,0.651283323764801,0.651283323764801
132,0.9760000109672546,0.06587310135364532,0.06587310135364532,0.00025,0.937333345413208,0.6530154943466187,0.6530154943466187
133,0.9800000190734863,0.05578214302659035,0.05578214302659035,0.00025,0.937333345413208,0.6550401449203491,0.6550401449203491
134,0.984000027179718,0.057158082723617554,0.057158082723617554,0.00025,0.937333345413208,0.6575307846069336,0.6575307846069336
135,0.9779999852180481,0.052699461579322815,0.052699461579322815,0.00025,0.9375555515289307,0.6593824625015259,0.6593824625015259
136,0.984000027179718,0.05498311668634415,0.05498311668634415,0.00025,0.9366666674613953,0.6627741456031799,0.6627741456031799
137,0.9819999933242798,0.05172218382358551,0.05172218382358551,0.00025,0.9362221956253052,0.6658344268798828,0.6658344268798828
138,0.9800000190734863,0.05191519111394882,0.05191519111394882,0.00025,0.9359999895095825,0.6688871383666992,0.6688871383666992
139,0.984000027179718,0.04389917850494385,0.04389917850494385,0.00025,0.937333345413208,0.6716059446334839,0.6716059446334839
140,0.9760000109672546,0.06072276830673218,0.06072276830673218,0.00025,0.937333345413208,0.6743375658988953,0.6743375658988953
141,0.9779999852180481,0.056272026151418686,0.056272026151418686,0.00025,0.9382222294807434,0.6758780479431152,0.6758780479431152
142,0.9819999933242798,0.046285081654787064,0.046285081654787064,0.00025,0.9380000233650208,0.6785080432891846,0.6785080432891846
143,0.984000027179718,0.04607344791293144,0.04607344791293144,0.00025,0.9364444613456726,0.6821004152297974,0.6821004152297974
144,0.9760000109672546,0.05176512151956558,0.05176512151956558,0.00025,0.9353333115577698,0.6854181289672852,0.6854181289672852
145,0.9779999852180481,0.0567643940448761,0.0567643940448761,0.00025,0.9344444274902344,0.6890538930892944,0.6890538930892944
146,0.9860000014305115,0.04502332955598831,0.04502332955598831,0.00025,0.9346666932106018,0.6900333166122437,0.6900333166122437
147,0.9819999933242798,0.053120020776987076,0.053120020776987076,0.00025,0.9348888993263245,0.6911165118217468,0.6911165118217468
148,0.9760000109672546,0.06529467552900314,0.06529467552900314,0.00025,0.9353333115577698,0.6926456689834595,0.6926456689834595
149,0.9800000190734863,0.057865727692842484,0.057865727692842484,0.00025,0.9366666674613953,0.6934201121330261,0.6934201121330261
150,0.9800000190734863,0.049370747059583664,0.049370747059583664,0.00025,0.9368888735771179,0.6954012513160706,0.6954012513160706
151,0.9760000109672546,0.047972116619348526,0.047972116619348526,0.00025,0.9355555772781372,0.6983727812767029,0.6983727812767029
152,0.9800000190734863,0.054023243486881256,0.054023243486881256,0.00025,0.9355555772781372,0.7013581395149231,0.7013581395149231
153,0.9739999771118164,0.05253829061985016,0.05253829061985016,0.00025,0.9357777833938599,0.7047418355941772,0.7047418355941772
154,0.9819999933242798,0.060875892639160156,0.060875892639160156,0.00025,0.9366666674613953,0.7061774730682373,0.7061774730682373
155,0.9819999933242798,0.049069229513406754,0.049069229513406754,0.00025,0.9380000233650208,0.7083159685134888,0.7083159685134888
156,0.9779999852180481,0.05676368251442909,0.05676368251442909,0.00025,0.9384444355964661,0.7126563787460327,0.7126563787460327
157,0.9819999933242798,0.045405030250549316,0.045405030250549316,0.00025,0.9371111392974854,0.7164134979248047,0.7164134979248047
158,0.9819999933242798,0.05165910720825195,0.05165910720825195,0.00025,0.9344444274902344,0.7217996120452881,0.7217996120452881
159,0.9819999933242798,0.04317081719636917,0.04317081719636917,0.00025,0.9315555691719055,0.7281004190444946,0.7281004190444946
160,0.984000027179718,0.04625625163316727,0.04625625163316727,0.00025,0.9300000071525574,0.731882631778717,0.731882631778717
161,0.984000027179718,0.045854102820158005,0.045854102820158005,0.00025,0.933555543422699,0.7296039462089539,0.7296039462089539
162,0.9940000176429749,0.0357879102230072,0.0357879102230072,0.00025,0.9359999895095825,0.7298982739448547,0.7298982739448547
163,0.9860000014305115,0.05169522762298584,0.05169522762298584,0.00025,0.9384444355964661,0.73149174451828,0.73149174451828
164,0.9819999933242798,0.051759276539087296,0.051759276539087296,0.00025,0.9382222294807434,0.7323054075241089,0.7323054075241089
165,0.9779999852180481,0.05286343768239021,0.05286343768239021,0.00025,0.9368888735771179,0.7321894764900208,0.7321894764900208
166,0.984000027179718,0.04624975100159645,0.04624975100159645,0.00025,0.9346666932106018,0.7359399199485779,0.7359399199485779
167,0.9779999852180481,0.057476237416267395,0.057476237416267395,0.00025,0.9322222471237183,0.7411575317382812,0.7411575317382812
168,0.9860000014305115,0.04994051530957222,0.04994051530957222,0.00025,0.933555543422699,0.7394421696662903,0.7394421696662903
169,0.9760000109672546,0.05745343491435051,0.05745343491435051,0.00025,0.9364444613456726,0.7341698408126831,0.7341698408126831
170,0.984000027179718,0.06282886862754822,0.06282886862754822,0.00025,0.9377777576446533,0.733425498008728,0.733425498008728
171,0.9779999852180481,0.05482812598347664,0.05482812598347664,0.00025,0.9384444355964661,0.733639121055603,0.733639121055603
172,0.9779999852180481,0.052784133702516556,0.052784133702516556,0.00025,0.9375555515289307,0.7337974309921265,0.7337974309921265
173,0.9800000190734863,0.043801940977573395,0.043801940977573395,0.00025,0.9359999895095825,0.734786868095398,0.734786868095398
174,0.9800000190734863,0.05599792301654816,0.05599792301654816,0.00025,0.9331111311912537,0.7373998761177063,0.7373998761177063
175,0.9800000190734863,0.05667823925614357,0.05667823925614357,0.000125,0.9319999814033508,0.7384015321731567,0.7384015321731567
176,0.9919999837875366,0.04280998930335045,0.04280998930335045,0.000125,0.9315555691719055,0.7389670014381409,0.7389670014381409
177,0.9860000014305115,0.04142836108803749,0.04142836108803749,0.000125,0.9317777752876282,0.7400500178337097,0.7400500178337097
178,0.9800000190734863,0.05244977027177811,0.05244977027177811,0.000125,0.9319999814033508,0.7409141659736633,0.7409141659736633
179,0.984000027179718,0.05280411243438721,0.05280411243438721,0.000125,0.9324444532394409,0.7411460280418396,0.7411460280418396
180,0.9900000095367432,0.0509263351559639,0.0509263351559639,0.000125,0.9331111311912537,0.7414149045944214,0.7414149045944214
181,0.9860000014305115,0.04462205246090889,0.04462205246090889,0.000125,0.9333333373069763,0.7421172261238098,0.7421172261238098
182,0.9879999756813049,0.037136927247047424,0.037136927247047424,0.000125,0.9340000152587891,0.742530345916748,0.742530345916748
183,0.9819999933242798,0.06448383629322052,0.06448383629322052,0.000125,0.933555543422699,0.74378502368927,0.74378502368927
184,0.9819999933242798,0.05731719732284546,0.05731719732284546,0.000125,0.9337777495384216,0.7445850968360901,0.7445850968360901
185,0.9800000190734863,0.05976308882236481,0.05976308882236481,0.000125,0.9342222213745117,0.7450702786445618,0.7450702786445618
186,0.9860000014305115,0.04431615397334099,0.04431615397334099,0.000125,0.9351111054420471,0.7453490495681763,0.7453490495681763
187,0.984000027179718,0.04375198483467102,0.04375198483467102,0.000125,0.9357777833938599,0.7451596260070801,0.7451596260070801
188,0.984000027179718,0.04353552311658859,0.04353552311658859,0.000125,0.9364444613456726,0.7452860474586487,0.7452860474586487
189,0.9819999933242798,0.04897936433553696,0.04897936433553696,0.000125,0.9366666674613953,0.7457084655761719,0.7457084655761719
190,0.9819999933242798,0.04219811409711838,0.04219811409711838,0.000125,0.9366666674613953,0.7462315559387207,0.7462315559387207
191,0.9879999756813049,0.03888370469212532,0.03888370469212532,0.000125,0.9364444613456726,0.7470017075538635,0.7470017075538635
192,0.984000027179718,0.04962434247136116,0.04962434247136116,0.000125,0.9362221956253052,0.7483912110328674,0.7483912110328674
193,0.9819999933242798,0.04705457016825676,0.04705457016825676,0.000125,0.9353333115577698,0.7499042749404907,0.7499042749404907
194,0.9860000014305115,0.046771228313446045,0.046771228313446045,0.000125,0.9344444274902344,0.7514510750770569,0.7514510750770569
195,0.984000027179718,0.05135897547006607,0.05135897547006607,0.000125,0.9337777495384216,0.7524930834770203,0.7524930834770203
196,0.9800000190734863,0.04594986140727997,0.04594986140727997,0.000125,0.933555543422699,0.7540342807769775,0.7540342807769775
197,0.9819999933242798,0.04517344757914543,0.04517344757914543,0.000125,0.9340000152587891,0.7538241744041443,0.7538241744041443
198,0.9779999852180481,0.05125878378748894,0.05125878378748894,0.000125,0.9351111054420471,0.7547918558120728,0.7547918558120728
199,0.9900000095367432,0.04619584605097771,0.04619584605097771,0.000125,0.9355555772781372,0.7556213140487671,0.7556213140487671
200,0.9760000109672546,0.05087440460920334,0.05087440460920334,0.000125,0.9355555772781372,0.7570447325706482,0.7570447325706482
201,0.9819999933242798,0.0477694608271122,0.0477694608271122,0.000125,0.9353333115577698,0.7585077881813049,0.7585077881813049
202,0.984000027179718,0.05435551702976227,0.05435551702976227,0.000125,0.9355555772781372,0.7596815824508667,0.7596815824508667
203,0.9800000190734863,0.043564725667238235,0.043564725667238235,0.000125,0.9344444274902344,0.761378288269043,0.761378288269043
204,0.984000027179718,0.04789481684565544,0.04789481684565544,0.000125,0.9333333373069763,0.7635507583618164,0.7635507583618164
205,0.9779999852180481,0.03871091082692146,0.03871091082692146,0.000125,0.9328888654708862,0.7660499215126038,0.7660499215126038
206,0.9800000190734863,0.04742768779397011,0.04742768779397011,0.000125,0.9324444532394409,0.7676576375961304,0.7676576375961304
207,0.9800000190734863,0.042332302778959274,0.042332302778959274,0.000125,0.933555543422699,0.7670152187347412,0.7670152187347412
208,0.9819999933242798,0.045706093311309814,0.045706093311309814,0.000125,0.9342222213745117,0.7662600874900818,0.7662600874900818
209,0.984000027179718,0.03522276133298874,0.03522276133298874,0.000125,0.9355555772781372,0.766644299030304,0.766644299030304
210,0.9779999852180481,0.04736831411719322,0.04736831411719322,0.000125,0.9355555772781372,0.7668883204460144,0.7668883204460144
211,0.9760000109672546,0.05354513227939606,0.05354513227939606,0.000125,0.9355555772781372,0.7675833106040955,0.7675833106040955
212,0.9819999933242798,0.055249061435461044,0.055249061435461044,0.000125,0.9359999895095825,0.7665010690689087,0.7665010690689087
213,0.9819999933242798,0.06068151071667671,0.06068151071667671,0.000125,0.9353333115577698,0.7654227614402771,0.7654227614402771
214,0.9860000014305115,0.038934383541345596,0.038934383541345596,0.000125,0.9344444274902344,0.7646023035049438,0.7646023035049438
215,0.9860000014305115,0.03904508799314499,0.03904508799314499,0.000125,0.9337777495384216,0.7638604640960693,0.7638604640960693
216,0.984000027179718,0.044870004057884216,0.044870004057884216,0.000125,0.9333333373069763,0.7630554437637329,0.7630554437637329
217,0.9800000190734863,0.04934694617986679,0.04934694617986679,0.000125,0.9337777495384216,0.7622508406639099,0.7622508406639099
218,0.984000027179718,0.05011237785220146,0.05011237785220146,0.000125,0.9342222213745117,0.7605316638946533,0.7605316638946533
219,0.9800000190734863,0.05061977729201317,0.05061977729201317,0.000125,0.9346666932106018,0.7591907382011414,0.7591907382011414
220,0.9860000014305115,0.041163716465234756,0.041163716465234756,0.000125,0.9348888993263245,0.7585744261741638,0.7585744261741638
221,0.9879999756813049,0.045739784836769104,0.045739784836769104,0.000125,0.9353333115577698,0.7584798336029053,0.7584798336029053
222,0.9879999756813049,0.04275459051132202,0.04275459051132202,0.000125,0.9357777833938599,0.7589350938796997,0.7589350938796997
223,0.984000027179718,0.046353209763765335,0.046353209763765335,0.000125,0.9359999895095825,0.7592985033988953,0.7592985033988953
224,0.9879999756813049,0.0390356220304966,0.0390356220304966,0.000125,0.9364444613456726,0.7599450349807739,0.7599450349807739
225,0.984000027179718,0.04409661516547203,0.04409661516547203,1e-04,0.9371111392974854,0.7603110074996948,0.7603110074996948
226,0.9819999933242798,0.0522070936858654,0.0522070936858654,1e-04,0.9371111392974854,0.7608550190925598,0.7608550190925598
227,0.9819999933242798,0.047487854957580566,0.047487854957580566,1e-04,0.9359999895095825,0.7616356015205383,0.7616356015205383
228,0.9860000014305115,0.03783581778407097,0.03783581778407097,1e-04,0.9351111054420471,0.7629494071006775,0.7629494071006775
229,0.9819999933242798,0.04754927009344101,0.04754927009344101,1e-04,0.9340000152587891,0.7646748423576355,0.7646748423576355
230,0.9879999756813049,0.043734386563301086,0.043734386563301086,1e-04,0.9337777495384216,0.7659533023834229,0.7659533023834229
231,0.9879999756813049,0.04177262634038925,0.04177262634038925,1e-04,0.933555543422699,0.7672468423843384,0.7672468423843384
232,0.9779999852180481,0.04502212256193161,0.04502212256193161,1e-04,0.933555543422699,0.7681741714477539,0.7681741714477539
233,0.9879999756813049,0.04205894097685814,0.04205894097685814,1e-04,0.9337777495384216,0.7693605422973633,0.7693605422973633
234,0.9860000014305115,0.031243901699781418,0.031243901699781418,1e-04,0.9340000152587891,0.7707309722900391,0.7707309722900391
235,0.9800000190734863,0.051223814487457275,0.051223814487457275,1e-04,0.9348888993263245,0.771700382232666,0.771700382232666
236,0.984000027179718,0.04425191879272461,0.04425191879272461,1e-04,0.9344444274902344,0.77298504114151,0.77298504114151
237,0.9819999933242798,0.04490960016846657,0.04490960016846657,1e-04,0.933555543422699,0.7746397852897644,0.7746397852897644
238,0.9819999933242798,0.04955047369003296,0.04955047369003296,1e-04,0.9331111311912537,0.7769601345062256,0.7769601345062256
239,0.984000027179718,0.044293057173490524,0.044293057173490524,1e-04,0.9322222471237183,0.7791218161582947,0.7791218161582947
240,0.9779999852180481,0.0562143549323082,0.0562143549323082,1e-04,0.9322222471237183,0.7797514796257019,0.7797514796257019
241,0.984000027179718,0.04513496905565262,0.04513496905565262,1e-04,0.9319999814033508,0.7802135944366455,0.7802135944366455
242,0.9779999852180481,0.04088236764073372,0.04088236764073372,1e-04,0.9326666593551636,0.7806417942047119,0.7806417942047119
243,0.9860000014305115,0.03525610268115997,0.03525610268115997,1e-04,0.9348888993263245,0.7802770137786865,0.7802770137786865
244,0.9860000014305115,0.04534311220049858,0.04534311220049858,1e-04,0.9359999895095825,0.7807236909866333,0.7807236909866333
245,0.9879999756813049,0.04129128158092499,0.04129128158092499,1e-04,0.9362221956253052,0.7817283868789673,0.7817283868789673
246,0.984000027179718,0.044060952961444855,0.044060952961444855,1e-04,0.9362221956253052,0.7833406329154968,0.7833406329154968
247,0.9819999933242798,0.043181877583265305,0.043181877583265305,1e-04,0.9355555772781372,0.7845308184623718,0.7845308184623718
248,0.984000027179718,0.043080829083919525,0.043080829083919525,1e-04,0.9340000152587891,0.7860685586929321,0.7860685586929321
249,0.9919999837875366,0.03604183718562126,0.03604183718562126,1e-04,0.9340000152587891,0.7868127226829529,0.7868127226829529
250,0.9860000014305115,0.04030156508088112,0.04030156508088112,1e-04,0.9342222213745117,0.7871289849281311,0.7871289849281311
251,0.984000027179718,0.040918365120887756,0.040918365120887756,1e-04,0.9344444274902344,0.7878217101097107,0.7878217101097107
252,0.9800000190734863,0.054750196635723114,0.054750196635723114,1e-04,0.933555543422699,0.7887516617774963,0.7887516617774963
253,0.9779999852180481,0.04857576638460159,0.04857576638460159,1e-04,0.9328888654708862,0.7894467115402222,0.7894467115402222
254,0.9779999852180481,0.044668421149253845,0.044668421149253845,1e-04,0.9351111054420471,0.7889269590377808,0.7889269590377808
255,0.984000027179718,0.040680792182683945,0.040680792182683945,1e-04,0.9353333115577698,0.7883775234222412,0.7883775234222412
256,0.984000027179718,0.04098166152834892,0.04098166152834892,1e-04,0.9357777833938599,0.7883902192115784,0.7883902192115784
257,0.9779999852180481,0.051094572991132736,0.051094572991132736,1e-04,0.9353333115577698,0.7887964248657227,0.7887964248657227
258,0.9900000095367432,0.0335964635014534,0.0335964635014534,1e-04,0.9355555772781372,0.7892316579818726,0.7892316579818726
259,0.9779999852180481,0.044207386672496796,0.044207386672496796,1e-04,0.9359999895095825,0.790166437625885,0.790166437625885
260,0.9819999933242798,0.04190757870674133,0.04190757870674133,1e-04,0.9351111054420471,0.7912347316741943,0.7912347316741943
261,0.9879999756813049,0.039498623460531235,0.039498623460531235,1e-04,0.9340000152587891,0.7927796244621277,0.7927796244621277
262,0.9819999933242798,0.04972970113158226,0.04972970113158226,1e-04,0.9324444532394409,0.7942302227020264,0.7942302227020264
263,0.9800000190734863,0.04231690987944603,0.04231690987944603,1e-04,0.9319999814033508,0.7960981726646423,0.7960981726646423
264,0.9800000190734863,0.04521968215703964,0.04521968215703964,1e-04,0.9308888912200928,0.7978350520133972,0.7978350520133972
265,0.9819999933242798,0.04414660483598709,0.04414660483598709,1e-04,0.9304444193840027,0.7992559671401978,0.7992559671401978
266,0.9819999933242798,0.046502865850925446,0.046502865850925446,1e-04,0.9304444193840027,0.8003650903701782,0.8003650903701782
267,0.9900000095367432,0.03345339000225067,0.03345339000225067,1e-04,0.9306666851043701,0.7999427318572998,0.7999427318572998
268,0.9860000014305115,0.04420119524002075,0.04420119524002075,1e-04,0.9315555691719055,0.7983845472335815,0.7983845472335815
269,0.9819999933242798,0.048511091619729996,0.048511091619729996,1e-04,0.9340000152587891,0.7961142063140869,0.7961142063140869
270,0.9860000014305115,0.03677889704704285,0.03677889704704285,1e-04,0.9359999895095825,0.7951620817184448,0.7951620817184448
271,0.984000027179718,0.03931495547294617,0.03931495547294617,1e-04,0.9368888735771179,0.7949953675270081,0.7949953675270081
272,0.9760000109672546,0.052763551473617554,0.052763551473617554,1e-04,0.9366666674613953,0.795270562171936,0.795270562171936
273,0.984000027179718,0.04149022698402405,0.04149022698402405,1e-04,0.9366666674613953,0.7947795987129211,0.7947795987129211
274,0.9860000014305115,0.03707735240459442,0.03707735240459442,1e-04,0.9351111054420471,0.7943928241729736,0.7943928241729736
275,0.984000027179718,0.05233243480324745,0.05233243480324745,1e-04,0.9333333373069763,0.7948430776596069,0.7948430776596069
276,0.9860000014305115,0.047745540738105774,0.047745540738105774,1e-04,0.9324444532394409,0.7966243028640747,0.7966243028640747
277,0.9779999852180481,0.0468994602560997,0.0468994602560997,1e-04,0.93022221326828,0.7983589768409729,0.7983589768409729
278,0.9879999756813049,0.04421516880393028,0.04421516880393028,1e-04,0.9304444193840027,0.7974299192428589,0.7974299192428589
279,0.9819999933242798,0.04612404853105545,0.04612404853105545,1e-04,0.9317777752876282,0.7954933643341064,0.7954933643341064
280,0.9879999756813049,0.04023259878158569,0.04023259878158569,1e-04,0.9331111311912537,0.7928449511528015,0.7928449511528015
281,0.984000027179718,0.04718467965722084,0.04718467965722084,1e-04,0.9340000152587891,0.7910474538803101,0.7910474538803101
282,0.9879999756813049,0.03340904414653778,0.03340904414653778,1e-04,0.9357777833938599,0.7898180484771729,0.7898180484771729
283,0.9800000190734863,0.045113176107406616,0.045113176107406616,1e-04,0.9371111392974854,0.7896502614021301,0.7896502614021301
284,0.9819999933242798,0.04885352402925491,0.04885352402925491,1e-04,0.9366666674613953,0.7898169159889221,0.7898169159889221
285,0.984000027179718,0.0452408529818058,0.0452408529818058,1e-04,0.9362221956253052,0.7896302938461304,0.7896302938461304
286,0.9800000190734863,0.05046338587999344,0.05046338587999344,1e-04,0.9344444274902344,0.7899236083030701,0.7899236083030701
287,0.984000027179718,0.03417667746543884,0.03417667746543884,1e-04,0.9313333630561829,0.7917761206626892,0.7917761206626892
288,0.9860000014305115,0.042193878442049026,0.042193878442049026,1e-04,0.9295555353164673,0.7945889830589294,0.7945889830589294
289,0.984000027179718,0.044308364391326904,0.044308364391326904,1e-04,0.929111123085022,0.7961954474449158,0.7961954474449158
290,0.9879999756813049,0.03494257479906082,0.03494257479906082,1e-04,0.9286666512489319,0.7950841188430786,0.7950841188430786
291,0.9860000014305115,0.0391208715736866,0.0391208715736866,1e-04,0.9288889169692993,0.7930548787117004,0.7930548787117004
292,0.9919999837875366,0.03395433723926544,0.03395433723926544,1e-04,0.9297778010368347,0.7910862565040588,0.7910862565040588
293,0.9819999933242798,0.037578780204057693,0.037578780204057693,1e-04,0.9311110973358154,0.7895237803459167,0.7895237803459167
294,0.9819999933242798,0.05105484277009964,0.05105484277009964,1e-04,0.9328888654708862,0.7882555723190308,0.7882555723190308
295,0.9800000190734863,0.054576680064201355,0.054576680064201355,1e-04,0.9344444274902344,0.7870593667030334,0.7870593667030334
296,0.9800000190734863,0.03669653460383415,0.03669653460383415,1e-04,0.9348888993263245,0.7863740921020508,0.7863740921020508
297,0.9819999933242798,0.045442067086696625,0.045442067086696625,1e-04,0.9340000152587891,0.7871090769767761,0.7871090769767761
298,0.9779999852180481,0.04701661318540573,0.04701661318540573,1e-04,0.9337777495384216,0.7884836196899414,0.7884836196899414
299,0.984000027179718,0.03996402770280838,0.03996402770280838,1e-04,0.9337777495384216,0.7907641530036926,0.7907641530036926
300,0.984000027179718,0.03356511890888214,0.03356511890888214,1e-04,0.9328888654708862,0.7934939861297607,0.7934939861297607
301,0.984000027179718,0.03764552250504494,0.03764552250504494,1e-04,0.9333333373069763,0.7948659658432007,0.7948659658432007
302,0.984000027179718,0.042523931711912155,0.042523931711912155,1e-04,0.9342222213745117,0.7958651781082153,0.7958651781082153
303,0.9819999933242798,0.04880394786596298,0.04880394786596298,1e-04,0.9351111054420471,0.7968260645866394,0.7968260645866394
304,0.984000027179718,0.04243827238678932,0.04243827238678932,1e-04,0.9351111054420471,0.7984493374824524,0.7984493374824524
305,0.9819999933242798,0.048948984593153,0.048948984593153,1e-04,0.9368888735771179,0.799343466758728,0.799343466758728
306,0.9860000014305115,0.04212496429681778,0.04212496429681778,1e-04,0.937333345413208,0.8004267811775208,0.8004267811775208
307,0.9819999933242798,0.04219099134206772,0.04219099134206772,1e-04,0.937333345413208,0.8024458289146423,0.8024458289146423
308,0.9819999933242798,0.04785918816924095,0.04785918816924095,1e-04,0.9362221956253052,0.8047919869422913,0.8047919869422913
309,0.9800000190734863,0.04955592378973961,0.04955592378973961,1e-04,0.9346666932106018,0.808725893497467,0.808725893497467
310,0.984000027179718,0.041499461978673935,0.041499461978673935,1e-04,0.9333333373069763,0.8123511075973511,0.8123511075973511
311,0.984000027179718,0.0440669059753418,0.0440669059753418,1e-04,0.933555543422699,0.8143556714057922,0.8143556714057922
312,0.9900000095367432,0.04365330561995506,0.04365330561995506,1e-04,0.933555543422699,0.8170998692512512,0.8170998692512512
313,0.9900000095367432,0.0316481739282608,0.0316481739282608,1e-04,0.9333333373069763,0.8197966814041138,0.8197966814041138
314,0.984000027179718,0.04697706177830696,0.04697706177830696,1e-04,0.9324444532394409,0.8218187093734741,0.8218187093734741
315,0.984000027179718,0.038828715682029724,0.038828715682029724,1e-04,0.9315555691719055,0.8240042924880981,0.8240042924880981
316,0.9900000095367432,0.03218233212828636,0.03218233212828636,1e-04,0.9304444193840027,0.8269066214561462,0.8269066214561462
317,0.9860000014305115,0.03666180372238159,0.03666180372238159,1e-04,0.9297778010368347,0.8294565677642822,0.8294565677642822
318,0.9879999756813049,0.038386255502700806,0.038386255502700806,1e-04,0.9306666851043701,0.8302850127220154,0.8302850127220154
319,0.9879999756813049,0.035200461745262146,0.035200461745262146,1e-04,0.9311110973358154,0.8294909596443176,0.8294909596443176
320,0.9860000014305115,0.03944725543260574,0.03944725543260574,1e-04,0.9333333373069763,0.8281607627868652,0.8281607627868652
321,0.9900000095367432,0.02961377613246441,0.02961377613246441,1e-04,0.9362221956253052,0.8277058601379395,0.8277058601379395
322,0.984000027179718,0.036887653172016144,0.036887653172016144,1e-04,0.9359999895095825,0.8279000520706177,0.8279000520706177
323,0.9819999933242798,0.038692086935043335,0.038692086935043335,1e-04,0.9362221956253052,0.8285344243049622,0.8285344243049622
324,0.984000027179718,0.03832407295703888,0.03832407295703888,1e-04,0.9364444613456726,0.8294697999954224,0.8294697999954224
325,0.9800000190734863,0.0431094728410244,0.0431094728410244,1e-04,0.9342222213745117,0.8317127823829651,0.8317127823829651
326,0.984000027179718,0.03889313340187073,0.03889313340187073,1e-04,0.9333333373069763,0.8340601921081543,0.8340601921081543
327,0.984000027179718,0.04045100510120392,0.04045100510120392,1e-04,0.9315555691719055,0.8367452621459961,0.8367452621459961
328,0.9879999756813049,0.04142531380057335,0.04142531380057335,1e-04,0.9315555691719055,0.8368004560470581,0.8368004560470581
329,0.9800000190734863,0.041651975363492966,0.041651975363492966,1e-04,0.9324444532394409,0.8359578847885132,0.8359578847885132
330,0.9860000014305115,0.041437339037656784,0.041437339037656784,1e-04,0.9353333115577698,0.8359736800193787,0.8359736800193787
331,0.9860000014305115,0.03629162907600403,0.03629162907600403,1e-04,0.9353333115577698,0.8370649218559265,0.8370649218559265
332,0.984000027179718,0.03401133790612221,0.03401133790612221,1e-04,0.9348888993263245,0.8387451767921448,0.8387451767921448
333,0.9900000095367432,0.029854627326130867,0.029854627326130867,1e-04,0.9337777495384216,0.840509831905365,0.840509831905365
334,0.9860000014305115,0.043242257088422775,0.043242257088422775,1e-04,0.9328888654708862,0.8426845669746399,0.8426845669746399
335,0.9800000190734863,0.04346434026956558,0.04346434026956558,1e-04,0.9311110973358154,0.8452854752540588,0.8452854752540588
336,0.984000027179718,0.032056648284196854,0.032056648284196854,1e-04,0.9306666851043701,0.8471507430076599,0.8471507430076599
337,0.9860000014305115,0.04196055233478546,0.04196055233478546,1e-04,0.9304444193840027,0.8484252095222473,0.8484252095222473
338,0.9860000014305115,0.04283570125699043,0.04283570125699043,1e-04,0.9311110973358154,0.8489434719085693,0.8489434719085693
339,0.9940000176429749,0.026241736486554146,0.026241736486554146,1e-04,0.9317777752876282,0.8491974472999573,0.8491974472999573
340,0.9919999837875366,0.03947501629590988,0.03947501629590988,1e-04,0.9317777752876282,0.8495712280273438,0.8495712280273438
341,0.9860000014305115,0.04625602811574936,0.04625602811574936,1e-04,0.9322222471237183,0.8496988415718079,0.8496988415718079
342,0.984000027179718,0.04242207854986191,0.04242207854986191,1e-04,0.9317777752876282,0.8503846526145935,0.8503846526145935
343,0.9819999933242798,0.038256146013736725,0.038256146013736725,1e-04,0.9304444193840027,0.8518374562263489,0.8518374562263489
344,0.9879999756813049,0.03032338060438633,0.03032338060438633,1e-04,0.9295555353164673,0.8556160926818848,0.8556160926818848
345,0.984000027179718,0.03971201553940773,0.03971201553940773,1e-04,0.9279999732971191,0.8581168055534363,0.8581168055534363
346,0.9879999756813049,0.04035451263189316,0.04035451263189316,1e-04,0.9295555353164673,0.8571653366088867,0.8571653366088867
347,0.984000027179718,0.047945763915777206,0.047945763915777206,1e-04,0.9317777752876282,0.8538057208061218,0.8538057208061218
348,0.9879999756813049,0.0403340645134449,0.0403340645134449,1e-04,0.9337777495384216,0.851474404335022,0.851474404335022
349,0.9819999933242798,0.048396602272987366,0.048396602272987366,1e-04,0.9346666932106018,0.8510310053825378,0.8510310053825378
350,0.9860000014305115,0.03836240619421005,0.03836240619421005,1e-04,0.9359999895095825,0.8512219786643982,0.8512219786643982
351,0.9879999756813049,0.034244388341903687,0.034244388341903687,1e-04,0.9362221956253052,0.8521128296852112,0.8521128296852112
352,0.9860000014305115,0.0430617481470108,0.0430617481470108,1e-04,0.937333345413208,0.8532009720802307,0.8532009720802307
353,0.984000027179718,0.043684978038072586,0.043684978038072586,1e-04,0.937333345413208,0.8549293279647827,0.8549293279647827
354,0.9819999933242798,0.030670519918203354,0.030670519918203354,1e-04,0.9355555772781372,0.8570185899734497,0.8570185899734497
355,0.9819999933242798,0.03831948712468147,0.03831948712468147,1e-04,0.9346666932106018,0.8594371676445007,0.8594371676445007
356,0.984000027179718,0.037099000066518784,0.037099000066518784,1e-04,0.9340000152587891,0.8630156517028809,0.8630156517028809
357,0.9860000014305115,0.03502676263451576,0.03502676263451576,1e-04,0.9333333373069763,0.8662757873535156,0.8662757873535156
358,0.9860000014305115,0.0384543314576149,0.0384543314576149,1e-04,0.9324444532394409,0.8683251142501831,0.8683251142501831
359,0.9900000095367432,0.031853895634412766,0.031853895634412766,1e-04,0.9326666593551636,0.8689165711402893,0.8689165711402893
360,0.9919999837875366,0.028821386396884918,0.028821386396884918,1e-04,0.9328888654708862,0.86909019947052,0.86909019947052
361,0.9800000190734863,0.04331738129258156,0.04331738129258156,1e-04,0.9326666593551636,0.8696907162666321,0.8696907162666321
362,0.9819999933242798,0.03416798263788223,0.03416798263788223,1e-04,0.9326666593551636,0.8690901398658752,0.8690901398658752
363,0.9879999756813049,0.03587781637907028,0.03587781637907028,1e-04,0.9328888654708862,0.8686894774436951,0.8686894774436951
364,0.9860000014305115,0.0366172231733799,0.0366172231733799,1e-04,0.9331111311912537,0.869081437587738,0.869081437587738
365,0.9900000095367432,0.041839566081762314,0.041839566081762314,1e-04,0.9333333373069763,0.869439423084259,0.869439423084259
366,0.9919999837875366,0.026951348409056664,0.026951348409056664,1e-04,0.9328888654708862,0.8704267740249634,0.8704267740249634
367,0.984000027179718,0.03884090855717659,0.03884090855717659,1e-04,0.9324444532394409,0.8720406889915466,0.8720406889915466
368,0.984000027179718,0.03630862385034561,0.03630862385034561,1e-04,0.9315555691719055,0.8739622831344604,0.8739622831344604
369,0.9900000095367432,0.026324205100536346,0.026324205100536346,1e-04,0.9297778010368347,0.8753973245620728,0.8753973245620728
370,0.9900000095367432,0.03190690651535988,0.03190690651535988,1e-04,0.9293333292007446,0.8765296936035156,0.8765296936035156
371,0.9900000095367432,0.03631856292486191,0.03631856292486191,1e-04,0.9295555353164673,0.876267671585083,0.876267671585083
372,0.984000027179718,0.04175478592514992,0.04175478592514992,1e-04,0.9319999814033508,0.8738724589347839,0.8738724589347839
373,0.9819999933242798,0.04549649730324745,0.04549649730324745,1e-04,0.933555543422699,0.8711058497428894,0.8711058497428894
374,0.9900000095367432,0.03146275505423546,0.03146275505423546,1e-04,0.9351111054420471,0.8693145513534546,0.8693145513534546
375,0.9879999756813049,0.03687946870923042,0.03687946870923042,1e-04,0.9351111054420471,0.8686671853065491,0.8686671853065491
376,0.9860000014305115,0.03518250584602356,0.03518250584602356,1e-04,0.9348888993263245,0.8683371543884277,0.8683371543884277
377,0.984000027179718,0.038906846195459366,0.038906846195459366,1e-04,0.9342222213745117,0.8707767724990845,0.8707767724990845
378,0.9900000095367432,0.03108147159218788,0.03108147159218788,1e-04,0.933555543422699,0.8735300302505493,0.8735300302505493
379,0.9819999933242798,0.0524824820458889,0.0524824820458889,1e-04,0.9317777752876282,0.8759421110153198,0.8759421110153198
380,0.9900000095367432,0.030850255861878395,0.030850255861878395,1e-04,0.9315555691719055,0.8774964213371277,0.8774964213371277
381,0.9860000014305115,0.03227514773607254,0.03227514773607254,1e-04,0.9317777752876282,0.876496434211731,0.876496434211731
382,0.9940000176429749,0.030567968264222145,0.030567968264222145,1e-04,0.9319999814033508,0.874814510345459,0.874814510345459
383,0.9879999756813049,0.03137678653001785,0.03137678653001785,1e-04,0.9337777495384216,0.8717267513275146,0.8717267513275146
384,0.9860000014305115,0.03681415319442749,0.03681415319442749,1e-04,0.9359999895095825,0.8700549602508545,0.8700549602508545
385,0.984000027179718,0.03856368735432625,0.03856368735432625,1e-04,0.9362221956253052,0.8691445589065552,0.8691445589065552
386,0.9860000014305115,0.03744139149785042,0.03744139149785042,1e-04,0.9355555772781372,0.8686524033546448,0.8686524033546448
387,0.9779999852180481,0.043992333114147186,0.043992333114147186,1e-04,0.933555543422699,0.8698411583900452,0.8698411583900452
388,0.9860000014305115,0.02941625937819481,0.02941625937819481,1e-04,0.9322222471237183,0.8714443445205688,0.8714443445205688
389,0.9900000095367432,0.031215850263834,0.031215850263834,1e-04,0.9315555691719055,0.8733150362968445,0.8733150362968445
390,0.984000027179718,0.032743848860263824,0.032743848860263824,1e-04,0.9308888912200928,0.8744195699691772,0.8744195699691772
391,0.9800000190734863,0.04039609804749489,0.04039609804749489,1e-04,0.93022221326828,0.8764654397964478,0.8764654397964478
392,0.9860000014305115,0.03555598482489586,0.03555598482489586,1e-04,0.9288889169692993,0.8803001046180725,0.8803001046180725
393,0.9860000014305115,0.04110877960920334,0.04110877960920334,1e-04,0.9300000071525574,0.8805238604545593,0.8805238604545593
394,0.9919999837875366,0.027966437861323357,0.027966437861323357,1e-04,0.9308888912200928,0.8788924217224121,0.8788924217224121
395,0.984000027179718,0.03685383126139641,0.03685383126139641,1e-04,0.9319999814033508,0.8785960078239441,0.8785960078239441
396,0.9819999933242798,0.04534662142395973,0.04534662142395973,1e-04,0.933555543422699,0.8781611323356628,0.8781611323356628
397,0.9879999756813049,0.03409627452492714,0.03409627452492714,1e-04,0.9346666932106018,0.8784535527229309,0.8784535527229309
398,0.9860000014305115,0.03728144243359566,0.03728144243359566,1e-04,0.933555543422699,0.8800541162490845,0.8800541162490845
399,0.9800000190734863,0.032571110874414444,0.032571110874414444,1e-04,0.9331111311912537,0.8824494481086731,0.8824494481086731
400,0.9879999756813049,0.028480498120188713,0.028480498120188713,1e-04,0.9322222471237183,0.8852488994598389,0.8852488994598389
401,0.9879999756813049,0.03563651442527771,0.03563651442527771,1e-04,0.93022221326828,0.88905268907547,0.88905268907547
402,0.984000027179718,0.03798012435436249,0.03798012435436249,1e-04,0.93022221326828,0.8922514915466309,0.8922514915466309
403,0.9900000095367432,0.02864743396639824,0.02864743396639824,1e-04,0.9300000071525574,0.8957550525665283,0.8957550525665283
404,0.9879999756813049,0.03237677365541458,0.03237677365541458,1e-04,0.93022221326828,0.8983680605888367,0.8983680605888367
405,0.9819999933242798,0.0363851860165596,0.0363851860165596,1e-04,0.9300000071525574,0.8985328078269958,0.8985328078269958
406,0.9879999756813049,0.03498730808496475,0.03498730808496475,1e-04,0.93022221326828,0.8987900614738464,0.8987900614738464
407,0.9900000095367432,0.03232448548078537,0.03232448548078537,1e-04,0.9324444532394409,0.8985670804977417,0.8985670804977417
408,0.9919999837875366,0.0293489471077919,0.0293489471077919,1e-04,0.9337777495384216,0.8994028568267822,0.8994028568267822
409,0.9879999756813049,0.02889431267976761,0.02889431267976761,1e-04,0.9342222213745117,0.9007839560508728,0.9007839560508728
410,0.9860000014305115,0.03493444621562958,0.03493444621562958,1e-04,0.9340000152587891,0.9032279253005981,0.9032279253005981
411,0.9860000014305115,0.03454959765076637,0.03454959765076637,1e-04,0.933555543422699,0.9054639935493469,0.9054639935493469
412,0.9819999933242798,0.04145214334130287,0.04145214334130287,1e-04,0.9319999814033508,0.9082661271095276,0.9082661271095276
413,0.9860000014305115,0.033031195402145386,0.033031195402145386,1e-04,0.9306666851043701,0.9120981097221375,0.9120981097221375
414,0.9860000014305115,0.03646528720855713,0.03646528720855713,1e-04,0.9288889169692993,0.91621994972229,0.91621994972229
415,0.9919999837875366,0.03127200901508331,0.03127200901508331,1e-04,0.9286666512489319,0.9202777743339539,0.9202777743339539
416,0.9860000014305115,0.03558243438601494,0.03558243438601494,1e-04,0.9284444451332092,0.9231117367744446,0.9231117367744446
417,0.9919999837875366,0.025325272232294083,0.025325272232294083,1e-04,0.9288889169692993,0.9250614047050476,0.9250614047050476
418,0.9900000095367432,0.024716392159461975,0.024716392159461975,1e-04,0.9293333292007446,0.9262858033180237,0.9262858033180237
419,0.9959999918937683,0.02473292127251625,0.02473292127251625,1e-04,0.93022221326828,0.927436113357544,0.927436113357544
420,0.9819999933242798,0.04231646656990051,0.04231646656990051,1e-04,0.9308888912200928,0.9283419847488403,0.9283419847488403
421,0.9900000095367432,0.03348551318049431,0.03348551318049431,1e-04,0.9308888912200928,0.9291601777076721,0.9291601777076721
422,0.984000027179718,0.041276704519987106,0.041276704519987106,1e-04,0.9315555691719055,0.9300748705863953,0.9300748705863953
423,0.9860000014305115,0.03736640140414238,0.03736640140414238,1e-04,0.93022221326828,0.9313747882843018,0.9313747882843018
424,0.9879999756813049,0.03531290590763092,0.03531290590763092,1e-04,0.9288889169692993,0.932502806186676,0.932502806186676
425,0.9879999756813049,0.032935164868831635,0.032935164868831635,1e-04,0.9279999732971191,0.9344384670257568,0.9344384670257568
426,0.9900000095367432,0.03366829827427864,0.03366829827427864,1e-04,0.9266666769981384,0.9361520409584045,0.9361520409584045
427,0.9819999933242798,0.03980974107980728,0.03980974107980728,1e-04,0.9248889088630676,0.9387667179107666,0.9387667179107666
428,0.9919999837875366,0.024085773155093193,0.024085773155093193,1e-04,0.9264444708824158,0.9377872347831726,0.9377872347831726
429,0.9879999756813049,0.034139469265937805,0.034139469265937805,1e-04,0.9277777671813965,0.9350214004516602,0.9350214004516602
430,0.9879999756813049,0.03783823922276497,0.03783823922276497,1e-04,0.9304444193840027,0.9307710528373718,0.9307710528373718
431,0.9940000176429749,0.0319000706076622,0.0319000706076622,1e-04,0.933555543422699,0.9280543327331543,0.9280543327331543
432,0.9800000190734863,0.05381195619702339,0.05381195619702339,1e-04,0.9348888993263245,0.9272624850273132,0.9272624850273132
433,0.9860000014305115,0.04203503578901291,0.04203503578901291,1e-04,0.9353333115577698,0.9266756772994995,0.9266756772994995
434,0.9860000014305115,0.0407298244535923,0.0407298244535923,1e-04,0.9348888993263245,0.9258646965026855,0.9258646965026855
435,0.984000027179718,0.02749696746468544,0.02749696746468544,1e-04,0.9328888654708862,0.9260220527648926,0.9260220527648926
436,0.9819999933242798,0.03737557679414749,0.03737557679414749,1e-04,0.9311110973358154,0.9288607835769653,0.9288607835769653
437,0.9879999756813049,0.02887832373380661,0.02887832373380661,1e-04,0.9277777671813965,0.9334768056869507,0.9334768056869507
438,0.984000027179718,0.03828613460063934,0.03828613460063934,1e-04,0.9268888831138611,0.9355514049530029,0.9355514049530029
439,0.9900000095367432,0.030526693910360336,0.030526693910360336,1e-04,0.9282222390174866,0.9333595633506775,0.9333595633506775
440,0.9900000095367432,0.028371624648571014,0.028371624648571014,1e-04,0.9315555691719055,0.9302962422370911,0.9302962422370911
441,0.9879999756813049,0.03261832520365715,0.03261832520365715,1e-04,0.9322222471237183,0.9280412197113037,0.9280412197113037
442,0.9900000095367432,0.032102227210998535,0.032102227210998535,1e-04,0.9340000152587891,0.9284287095069885,0.9284287095069885
443,0.9819999933242798,0.04888114705681801,0.04888114705681801,1e-04,0.9342222213745117,0.9293532967567444,0.9293532967567444
444,0.9879999756813049,0.02426019497215748,0.02426019497215748,1e-04,0.9342222213745117,0.9302908182144165,0.9302908182144165
445,0.984000027179718,0.03318252041935921,0.03318252041935921,1e-04,0.9344444274902344,0.9321703314781189,0.9321703314781189
446,0.9800000190734863,0.03914111480116844,0.03914111480116844,1e-04,0.933555543422699,0.9339378476142883,0.9339378476142883
447,0.9900000095367432,0.04203647002577782,0.04203647002577782,1e-04,0.9322222471237183,0.9357236623764038,0.9357236623764038
448,0.984000027179718,0.038919851183891296,0.038919851183891296,1e-04,0.9317777752876282,0.9372739791870117,0.9372739791870117
449,0.9900000095367432,0.02505059354007244,0.02505059354007244,1e-04,0.9315555691719055,0.9387900233268738,0.9387900233268738
450,0.9879999756813049,0.027202539145946503,0.027202539145946503,1e-04,0.9311110973358154,0.9397685527801514,0.9397685527801514
451,0.9879999756813049,0.035329703241586685,0.035329703241586685,1e-04,0.9311110973358154,0.9404366612434387,0.9404366612434387
452,0.9779999852180481,0.048364441841840744,0.048364441841840744,1e-04,0.9295555353164673,0.9425070285797119,0.9425070285797119
453,0.9819999933242798,0.038517240434885025,0.038517240434885025,1e-04,0.9297778010368347,0.9437494277954102,0.9437494277954102
454,0.9879999756813049,0.031489837914705276,0.031489837914705276,1e-04,0.9304444193840027,0.9439124464988708,0.9439124464988708
455,0.9860000014305115,0.03391121327877045,0.03391121327877045,1e-04,0.9315555691719055,0.9433324933052063,0.9433324933052063
456,0.9879999756813049,0.03560688719153404,0.03560688719153404,1e-04,0.9319999814033508,0.9436970353126526,0.9436970353126526
457,0.9860000014305115,0.0371142141520977,0.0371142141520977,1e-04,0.9317777752876282,0.9444034099578857,0.9444034099578857
458,0.9919999837875366,0.03365214169025421,0.03365214169025421,1e-04,0.9319999814033508,0.9451695680618286,0.9451695680618286
459,0.9879999756813049,0.03086347132921219,0.03086347132921219,1e-04,0.9315555691719055,0.9461166262626648,0.9461166262626648
460,0.984000027179718,0.0345204658806324,0.0345204658806324,1e-04,0.9311110973358154,0.9475858211517334,0.9475858211517334
461,0.9900000095367432,0.02642621099948883,0.02642621099948883,1e-04,0.9297778010368347,0.9503380060195923,0.9503380060195923
462,0.9900000095367432,0.027335792779922485,0.027335792779922485,1e-04,0.9275555610656738,0.9535778164863586,0.9535778164863586
463,0.9900000095367432,0.03108277916908264,0.03108277916908264,1e-04,0.9300000071525574,0.9516603946685791,0.9516603946685791
464,0.9879999756813049,0.034328192472457886,0.034328192472457886,1e-04,0.9311110973358154,0.9495939612388611,0.9495939612388611
465,0.9900000095367432,0.03600122779607773,0.03600122779607773,1e-04,0.9319999814033508,0.9485653042793274,0.9485653042793274
466,0.9860000014305115,0.03188784793019295,0.03188784793019295,1e-04,0.9319999814033508,0.9482468366622925,0.9482468366622925
467,0.9879999756813049,0.029834911227226257,0.029834911227226257,1e-04,0.9322222471237183,0.9508675336837769,0.9508675336837769
468,0.9860000014305115,0.0355740524828434,0.0355740524828434,1e-04,0.9319999814033508,0.9534707069396973,0.9534707069396973
469,0.9860000014305115,0.032003019005060196,0.032003019005060196,1e-04,0.9317777752876282,0.955682098865509,0.955682098865509
470,0.9879999756813049,0.03260376304388046,0.03260376304388046,1e-04,0.9300000071525574,0.9591703414916992,0.9591703414916992
471,0.9819999933242798,0.03483536094427109,0.03483536094427109,1e-04,0.9284444451332092,0.9627109169960022,0.9627109169960022
472,0.9879999756813049,0.03167259693145752,0.03167259693145752,1e-04,0.9259999990463257,0.9667086601257324,0.9667086601257324
473,0.9919999837875366,0.029116718098521233,0.029116718098521233,1e-04,0.9262222051620483,0.9674782752990723,0.9674782752990723
474,0.984000027179718,0.039482295513153076,0.039482295513153076,1e-04,0.9295555353164673,0.9646132588386536,0.9646132588386536
475,0.9919999837875366,0.024780722334980965,0.024780722334980965,1e-04,0.9315555691719055,0.9626792669296265,0.9626792669296265
476,0.984000027179718,0.035025544464588165,0.035025544464588165,1e-04,0.9322222471237183,0.9622188806533813,0.9622188806533813
477,0.984000027179718,0.040087390691041946,0.040087390691041946,1e-04,0.9328888654708862,0.9624449610710144,0.9624449610710144
478,0.9860000014305115,0.035345446318387985,0.035345446318387985,1e-04,0.9328888654708862,0.9627317786216736,0.9627317786216736
479,0.9860000014305115,0.023656869307160378,0.023656869307160378,1e-04,0.9324444532394409,0.9635586142539978,0.9635586142539978
480,0.9879999756813049,0.034756384789943695,0.034756384789943695,1e-04,0.9304444193840027,0.9660962224006653,0.9660962224006653
481,0.9919999837875366,0.03029903583228588,0.03029903583228588,1e-04,0.9282222390174866,0.9692571759223938,0.9692571759223938
482,0.9959999918937683,0.02006932534277439,0.02006932534277439,1e-04,0.9266666769981384,0.972740888595581,0.972740888595581
483,0.984000027179718,0.03937992826104164,0.03937992826104164,1e-04,0.9273333549499512,0.9727115035057068,0.9727115035057068
484,0.9819999933242798,0.038142383098602295,0.038142383098602295,1e-04,0.9273333549499512,0.9734483361244202,0.9734483361244202
485,0.9919999837875366,0.02965773083269596,0.02965773083269596,1e-04,0.9284444451332092,0.9706740379333496,0.9706740379333496
486,0.9860000014305115,0.027460286393761635,0.027460286393761635,1e-04,0.9308888912200928,0.9685567617416382,0.9685567617416382
487,0.9919999837875366,0.030950358137488365,0.030950358137488365,1e-04,0.9324444532394409,0.9675729274749756,0.9675729274749756
488,0.9959999918937683,0.022506527602672577,0.022506527602672577,1e-04,0.9342222213745117,0.9668149948120117,0.9668149948120117
489,0.9900000095367432,0.0269542895257473,0.0269542895257473,1e-04,0.9353333115577698,0.9671600461006165,0.9671600461006165
490,0.984000027179718,0.0273852851241827,0.0273852851241827,1e-04,0.9355555772781372,0.9676931500434875,0.9676931500434875
491,0.984000027179718,0.028777986764907837,0.028777986764907837,1e-04,0.9351111054420471,0.968697726726532,0.968697726726532
492,0.9819999933242798,0.03680930286645889,0.03680930286645889,1e-04,0.9333333373069763,0.970531702041626,0.970531702041626
493,0.984000027179718,0.038693953305482864,0.038693953305482864,1e-04,0.9306666851043701,0.9729339480400085,0.9729339480400085
494,0.984000027179718,0.03140396252274513,0.03140396252274513,1e-04,0.9288889169692993,0.9749680161476135,0.9749680161476135
495,0.9860000014305115,0.03161728009581566,0.03161728009581566,1e-04,0.9273333549499512,0.9777505397796631,0.9777505397796631
496,0.9919999837875366,0.03012763150036335,0.03012763150036335,1e-04,0.9271110892295837,0.977994441986084,0.977994441986084
497,0.9919999837875366,0.023973602801561356,0.023973602801561356,1e-04,0.9275555610656738,0.976965069770813,0.976965069770813
498,0.9879999756813049,0.03058495558798313,0.03058495558798313,1e-04,0.929111123085022,0.973343551158905,0.973343551158905
499,0.9919999837875366,0.024967225268483162,0.024967225268483162,1e-04,0.9315555691719055,0.9722400307655334,0.9722400307655334
500,0.9879999756813049,0.03458769619464874,0.03458769619464874,1e-04,0.9333333373069763,0.9720486402511597,0.9720486402511597
501,0.9879999756813049,0.02733130194246769,0.02733130194246769,1e-04,0.9324444532394409,0.9726862907409668,0.9726862907409668
502,0.984000027179718,0.04065156728029251,0.04065156728029251,1e-04,0.9322222471237183,0.9732089638710022,0.9732089638710022
503,0.9879999756813049,0.027195680886507034,0.027195680886507034,1e-04,0.9317777752876282,0.973762035369873,0.973762035369873
504,0.9860000014305115,0.034194160252809525,0.034194160252809525,1e-04,0.9308888912200928,0.9748400449752808,0.9748400449752808
505,0.9879999756813049,0.034426212310791016,0.034426212310791016,1e-04,0.9284444451332092,0.9769929647445679,0.9769929647445679
506,0.9900000095367432,0.02548200450837612,0.02548200450837612,1e-04,0.9264444708824158,0.981119692325592,0.981119692325592
507,0.9900000095367432,0.029182251542806625,0.029182251542806625,1e-04,0.9242222309112549,0.9843794703483582,0.9843794703483582
508,0.984000027179718,0.03845559060573578,0.03845559060573578,1e-04,0.925777792930603,0.9831691384315491,0.9831691384315491
509,0.9900000095367432,0.02889077737927437,0.02889077737927437,1e-04,0.9266666769981384,0.9813722968101501,0.9813722968101501
510,0.9900000095367432,0.03367464989423752,0.03367464989423752,1e-04,0.9288889169692993,0.9784311056137085,0.9784311056137085
511,0.9800000190734863,0.03841863200068474,0.03841863200068474,1e-04,0.9304444193840027,0.9769623279571533,0.9769623279571533
512,0.9919999837875366,0.028400039300322533,0.028400039300322533,1e-04,0.9315555691719055,0.975432813167572,0.975432813167572
513,0.9940000176429749,0.020275257527828217,0.020275257527828217,1e-04,0.9331111311912537,0.9743533134460449,0.9743533134460449
514,0.9919999837875366,0.020196590572595596,0.020196590572595596,1e-04,0.9340000152587891,0.9742521643638611,0.9742521643638611
515,0.984000027179718,0.024727854877710342,0.024727854877710342,1e-04,0.9333333373069763,0.9745540618896484,0.9745540618896484
516,0.9919999837875366,0.023832248523831367,0.023832248523831367,1e-04,0.9331111311912537,0.9758555889129639,0.9758555889129639
517,0.9900000095367432,0.028228938579559326,0.028228938579559326,1e-04,0.9313333630561829,0.9788900017738342,0.9788900017738342
518,0.984000027179718,0.033480849117040634,0.033480849117040634,1e-04,0.9288889169692993,0.9833047986030579,0.9833047986030579
519,0.9959999918937683,0.021540801972150803,0.021540801972150803,1e-04,0.9275555610656738,0.9862160086631775,0.9862160086631775
520,0.9940000176429749,0.02305346541106701,0.02305346541106701,1e-04,0.9286666512489319,0.9859902262687683,0.9859902262687683
521,0.9940000176429749,0.023090068250894547,0.023090068250894547,1e-04,0.9300000071525574,0.9845193028450012,0.9845193028450012
522,0.9940000176429749,0.030402468517422676,0.030402468517422676,1e-04,0.9319999814033508,0.9847968816757202,0.9847968816757202
523,0.984000027179718,0.028564855456352234,0.028564855456352234,1e-04,0.9322222471237183,0.9869133830070496,0.9869133830070496
524,0.9860000014305115,0.029525265097618103,0.029525265097618103,1e-04,0.9322222471237183,0.9891780614852905,0.9891780614852905
525,0.9900000095367432,0.01967277191579342,0.01967277191579342,1e-04,0.9322222471237183,0.9920976758003235,0.9920976758003235
526,0.9879999756813049,0.03081713430583477,0.03081713430583477,1e-04,0.9315555691719055,0.9948285818099976,0.9948285818099976
527,0.9900000095367432,0.029092464596033096,0.029092464596033096,1e-04,0.9311110973358154,0.9981062412261963,0.9981062412261963
528,0.9900000095367432,0.026734501123428345,0.026734501123428345,1e-04,0.9284444451332092,1.0013712644577026,1.0013712644577026
529,0.9879999756813049,0.030045175924897194,0.030045175924897194,1e-04,0.9277777671813965,1.0055066347122192,1.0055066347122192
530,0.9900000095367432,0.024251548573374748,0.024251548573374748,1e-04,0.9266666769981384,1.0076910257339478,1.0076910257339478
531,0.9919999837875366,0.03599338233470917,0.03599338233470917,1e-04,0.9262222051620483,1.0096796751022339,1.0096796751022339
532,0.9879999756813049,0.03313184529542923,0.03313184529542923,1e-04,0.9273333549499512,1.0080053806304932,1.0080053806304932
533,0.9879999756813049,0.032011888921260834,0.032011888921260834,1e-04,0.9288889169692993,1.0061596632003784,1.0061596632003784
534,0.984000027179718,0.0362563356757164,0.0362563356757164,1e-04,0.9293333292007446,1.0052244663238525,1.0052244663238525
535,0.9919999837875366,0.02875601127743721,0.02875601127743721,1e-04,0.9317777752876282,1.004075527191162,1.004075527191162
536,0.9919999837875366,0.028233960270881653,0.028233960270881653,1e-04,0.9315555691719055,1.0041121244430542,1.0041120052337646
537,0.9919999837875366,0.021670835092663765,0.021670835092663765,1e-04,0.9319999814033508,1.0031816959381104,1.0031816959381104
538,0.9900000095367432,0.027266882359981537,0.027266882359981537,1e-04,0.9324444532394409,1.0034412145614624,1.0034412145614624
539,0.9900000095367432,0.03076060488820076,0.03076060488820076,1e-04,0.9322222471237183,1.0037511587142944,1.0037511587142944
540,0.9900000095367432,0.029834557324647903,0.029834557324647903,1e-04,0.9313333630561829,1.0062403678894043,1.0062403678894043
541,0.9879999756813049,0.024318164214491844,0.024318164214491844,1e-04,0.9313333630561829,1.0065648555755615,1.0065648555755615
542,0.9959999918937683,0.021054906770586967,0.021054906770586967,1e-04,0.9313333630561829,1.007114052772522,1.007114052772522
543,0.9900000095367432,0.02410237304866314,0.02410237304866314,1e-04,0.9317777752876282,1.0089308023452759,1.0089308023452759
544,0.9879999756813049,0.026311656460165977,0.026311656460165977,1e-04,0.9317777752876282,1.010314702987671,1.010314702987671
545,0.9819999933242798,0.03587765991687775,0.03587765991687775,1e-04,0.9315555691719055,1.011050820350647,1.011050820350647
546,0.9919999837875366,0.022471338510513306,0.022471338510513306,1e-04,0.9317777752876282,1.011401653289795,1.011401653289795
547,0.984000027179718,0.03322659060359001,0.03322659060359001,1e-04,0.9326666593551636,1.0115528106689453,1.0115528106689453
548,0.9900000095367432,0.02958998829126358,0.02958998829126358,1e-04,0.9331111311912537,1.0144157409667969,1.0144157409667969
549,0.9879999756813049,0.026178406551480293,0.026178406551480293,1e-04,0.9331111311912537,1.0175457000732422,1.0175457000732422
550,0.9919999837875366,0.022420823574066162,0.022420823574066162,1e-04,0.9326666593551636,1.0210151672363281,1.0210151672363281
551,0.9879999756813049,0.03598471358418465,0.03598471358418465,1e-04,0.9319999814033508,1.0244017839431763,1.0244017839431763
552,0.9940000176429749,0.01981324329972267,0.01981324329972267,1e-04,0.9308888912200928,1.02824068069458,1.02824068069458
553,0.9860000014305115,0.03203541412949562,0.03203541412949562,1e-04,0.9284444451332092,1.0333654880523682,1.0333654880523682
554,0.9919999837875366,0.024393325671553612,0.024393325671553612,1e-04,0.9264444708824158,1.0395876169204712,1.0395876169204712
555,0.9900000095367432,0.024222884327173233,0.024222884327173233,1e-04,0.9237777590751648,1.0449490547180176,1.0449490547180176
556,0.9919999837875366,0.02548248879611492,0.02548248879611492,1e-04,0.925777792930603,1.0440994501113892,1.0440994501113892
557,0.9860000014305115,0.02960333600640297,0.02960333600640297,1e-04,0.9264444708824158,1.0403414964675903,1.0403416156768799
558,0.9940000176429749,0.028572335839271545,0.028572335839271545,1e-04,0.9304444193840027,1.0383610725402832,1.0383610725402832
559,0.9860000014305115,0.032170385122299194,0.032170385122299194,1e-04,0.9304444193840027,1.0379021167755127,1.0379021167755127
560,0.9860000014305115,0.028510555624961853,0.028510555624961853,1e-04,0.9311110973358154,1.0381327867507935,1.0381327867507935
561,0.9919999837875366,0.018598055467009544,0.018598055467009544,1e-04,0.9308888912200928,1.0373715162277222,1.0373715162277222
562,0.9900000095367432,0.028103703632950783,0.028103703632950783,1e-04,0.9304444193840027,1.037976622581482,1.037976622581482
563,0.9900000095367432,0.02876954898238182,0.02876954898238182,1e-04,0.9277777671813965,1.0404613018035889,1.0404613018035889
564,0.9879999756813049,0.02814268320798874,0.02814268320798874,1e-04,0.9262222051620483,1.0412836074829102,1.0412836074829102
565,0.9919999837875366,0.023463726043701172,0.023463726043701172,1e-04,0.9262222051620483,1.0399726629257202,1.0399726629257202
566,0.9919999837875366,0.023887580260634422,0.023887580260634422,1e-04,0.9293333292007446,1.0348050594329834,1.0348050594329834
567,0.9900000095367432,0.02827645279467106,0.02827645279467106,1e-04,0.9326666593551636,1.0305372476577759,1.0305372476577759
568,0.9940000176429749,0.030059438198804855,0.030059438198804855,1e-04,0.9331111311912537,1.0272369384765625,1.0272369384765625
569,0.9860000014305115,0.03709283843636513,0.03709283843636513,1e-04,0.9331111311912537,1.025450587272644,1.025450587272644
570,0.9919999837875366,0.020373182371258736,0.020373182371258736,1e-04,0.9331111311912537,1.0247447490692139,1.0247447490692139
571,0.9819999933242798,0.03073364682495594,0.03073364682495594,1e-04,0.9317777752876282,1.0266292095184326,1.0266292095184326
572,0.9879999756813049,0.03101171925663948,0.03101171925663948,1e-04,0.9275555610656738,1.0300967693328857,1.0300967693328857
573,0.9919999837875366,0.02296232059597969,0.02296232059597969,1e-04,0.9259999990463257,1.031190276145935,1.031190276145935
574,0.9879999756813049,0.0329742468893528,0.0329742468893528,1e-04,0.9240000247955322,1.0353388786315918,1.0353388786315918
575,0.9940000176429749,0.01894812472164631,0.01894812472164631,1e-04,0.9228888750076294,1.0375192165374756,1.0375192165374756
576,0.9900000095367432,0.02535644918680191,0.02535644918680191,1e-04,0.9237777590751648,1.0358904600143433,1.0358904600143433
577,0.9959999918937683,0.0185154527425766,0.0185154527425766,1e-04,0.9259999990463257,1.0300629138946533,1.0300629138946533
578,0.9900000095367432,0.031582970172166824,0.031582970172166824,1e-04,0.929111123085022,1.0271098613739014,1.0271097421646118
579,0.9879999756813049,0.029038963839411736,0.029038963839411736,1e-04,0.9322222471237183,1.0246367454528809,1.0246367454528809
580,0.9860000014305115,0.031081121414899826,0.031081121414899826,1e-04,0.9333333373069763,1.0245330333709717,1.0245330333709717
581,0.9879999756813049,0.02810772694647312,0.02810772694647312,1e-04,0.9331111311912537,1.0256015062332153,1.0256015062332153
582,0.9919999837875366,0.022627150639891624,0.022627150639891624,1e-04,0.9328888654708862,1.027212381362915,1.027212381362915
583,0.9919999837875366,0.021796168759465218,0.021796168759465218,1e-04,0.9313333630561829,1.030063509941101,1.030063509941101
584,0.9919999837875366,0.023872261866927147,0.023872261866927147,1e-04,0.929111123085022,1.0338648557662964,1.0338648557662964
585,0.9900000095367432,0.026322510093450546,0.026322510093450546,1e-04,0.9271110892295837,1.0401265621185303,1.0401265621185303
586,0.9940000176429749,0.02195333130657673,0.02195333130657673,1e-04,0.9259999990463257,1.045515775680542,1.045515775680542
587,0.9900000095367432,0.027712710201740265,0.027712710201740265,1e-04,0.9255555272102356,1.0482767820358276,1.0482767820358276
588,0.9940000176429749,0.02145124413073063,0.02145124413073063,1e-04,0.9284444451332092,1.0484962463378906,1.0484962463378906
589,0.9819999933242798,0.03368819132447243,0.03368819132447243,1e-04,0.9293333292007446,1.0510916709899902,1.0510916709899902
590,0.9879999756813049,0.022963039577007294,0.022963039577007294,1e-04,0.9284444451332092,1.0539824962615967,1.0539824962615967
591,0.9919999837875366,0.02411545254290104,0.02411545254290104,1e-04,0.9268888831138611,1.0572031736373901,1.0572031736373901
592,0.9860000014305115,0.026792388409376144,0.026792388409376144,1e-04,0.9253333210945129,1.0617390871047974,1.0617390871047974
593,0.9919999837875366,0.025810806080698967,0.025810806080698967,1e-04,0.9235555529594421,1.0657784938812256,1.0657784938812256
594,0.984000027179718,0.03611430525779724,0.03611430525779724,1e-04,0.921999990940094,1.0697003602981567,1.0697003602981567
595,0.9919999837875366,0.021907439455389977,0.021907439455389977,1e-04,0.9226666688919067,1.0713921785354614,1.0713921785354614
596,0.9959999918937683,0.02232246659696102,0.02232246659696102,1e-04,0.9244444370269775,1.0711491107940674,1.0711491107940674
597,0.984000027179718,0.026321930810809135,0.026321930810809135,1e-04,0.9251111149787903,1.0714181661605835,1.0714181661605835
598,0.9900000095367432,0.037641413509845734,0.037641413509845734,1e-04,0.9262222051620483,1.0722062587738037,1.0722062587738037
599,0.9900000095367432,0.025432303547859192,0.025432303547859192,1e-04,0.9262222051620483,1.0740529298782349,1.0740529298782349
600,0.9959999918937683,0.020982060581445694,0.020982060581445694,1e-04,0.9271110892295837,1.0754889249801636,1.0754889249801636
601,0.9900000095367432,0.025613052770495415,0.025613052770495415,1e-04,0.9284444451332092,1.0759609937667847,1.0759609937667847
602,0.9860000014305115,0.029944827780127525,0.029944827780127525,1e-04,0.9288889169692993,1.0781110525131226,1.0781110525131226
603,0.9940000176429749,0.028536133468151093,0.028536133468151093,1e-04,0.9277777671813965,1.0800719261169434,1.0800719261169434
604,0.9940000176429749,0.02322687767446041,0.02322687767446041,1e-04,0.9273333549499512,1.0820330381393433,1.0820330381393433
605,0.9879999756813049,0.027310604229569435,0.027310604229569435,1e-04,0.9277777671813965,1.0826945304870605,1.0826945304870605
606,0.9919999837875366,0.026661116629838943,0.026661116629838943,1e-04,0.929111123085022,1.0828936100006104,1.0828936100006104
607,0.9879999756813049,0.029892142862081528,0.029892142862081528,1e-04,0.9311110973358154,1.0825607776641846,1.0825607776641846
608,0.9919999837875366,0.02550419047474861,0.02550419047474861,1e-04,0.9311110973358154,1.0844160318374634,1.0844160318374634
609,0.9940000176429749,0.020349111407995224,0.020349111407995224,1e-04,0.9304444193840027,1.087066650390625,1.087066650390625
610,0.9879999756813049,0.021452613174915314,0.021452613174915314,1e-04,0.9286666512489319,1.0903055667877197,1.0903055667877197
611,0.9959999918937683,0.021623197942972183,0.021623197942972183,1e-04,0.9282222390174866,1.0922679901123047,1.0922679901123047
612,0.9900000095367432,0.026706868782639503,0.026706868782639503,1e-04,0.9277777671813965,1.093581199645996,1.093581199645996
613,0.9919999837875366,0.018666552379727364,0.018666552379727364,1e-04,0.9279999732971191,1.0933001041412354,1.0933001041412354
614,0.9940000176429749,0.022930340841412544,0.022930340841412544,1e-04,0.9295555353164673,1.090993046760559,1.090993046760559
615,0.9940000176429749,0.023968549445271492,0.023968549445271492,1e-04,0.9308888912200928,1.0905308723449707,1.0905308723449707
616,0.9900000095367432,0.021645236760377884,0.021645236760377884,1e-04,0.9308888912200928,1.0914537906646729,1.0914537906646729
617,0.9800000190734863,0.031821560114622116,0.031821560114622116,1e-04,0.9311110973358154,1.0923986434936523,1.0923986434936523
618,0.9919999837875366,0.020361443981528282,0.020361443981528282,1e-04,0.9315555691719055,1.0931453704833984,1.0931453704833984
619,0.9879999756813049,0.03294845297932625,0.03294845297932625,1e-04,0.9304444193840027,1.0947108268737793,1.0947108268737793
620,0.9900000095367432,0.0223244596272707,0.0223244596272707,1e-04,0.9275555610656738,1.0987260341644287,1.0987260341644287
621,0.9919999837875366,0.023014064878225327,0.023014064878225327,1e-04,0.9255555272102356,1.1030545234680176,1.1030545234680176
622,0.9879999756813049,0.027250640094280243,0.027250640094280243,1e-04,0.9237777590751648,1.106215000152588,1.106215000152588
623,0.9940000176429749,0.02075021155178547,0.02075021155178547,1e-04,0.9248889088630676,1.103702425956726,1.103702425956726
624,0.9919999837875366,0.024934308603405952,0.024934308603405952,1e-04,0.9273333549499512,1.0992863178253174,1.0992863178253174
625,0.9959999918937683,0.02118801511824131,0.02118801511824131,1e-04,0.9300000071525574,1.097658634185791,1.097658634185791
626,0.9860000014305115,0.028678860515356064,0.028678860515356064,1e-04,0.9313333630561829,1.0976767539978027,1.0976767539978027
627,0.9860000014305115,0.024982532486319542,0.024982532486319542,1e-04,0.9288889169692993,1.0989631414413452,1.0989631414413452
628,0.9879999756813049,0.021877041086554527,0.021877041086554527,1e-04,0.9271110892295837,1.100425124168396,1.100425124168396
629,0.9919999837875366,0.02284463681280613,0.02284463681280613,1e-04,0.9264444708824158,1.100310206413269,1.100310206413269
630,0.9879999756813049,0.02656788006424904,0.02656788006424904,1e-04,0.9275555610656738,1.1013180017471313,1.1013180017471313
631,0.9919999837875366,0.025581950321793556,0.025581950321793556,1e-04,0.929111123085022,1.1009105443954468,1.1009105443954468
632,0.9900000095367432,0.024992428719997406,0.024992428719997406,1e-04,0.9306666851043701,1.1004364490509033,1.1004364490509033
633,0.9919999837875366,0.019866488873958588,0.019866488873958588,1e-04,0.9313333630561829,1.100745677947998,1.100745677947998
634,0.9940000176429749,0.016266215592622757,0.016266215592622757,1e-04,0.9311110973358154,1.1019632816314697,1.1019632816314697
635,0.9900000095367432,0.017879391089081764,0.017879391089081764,1e-04,0.9304444193840027,1.1038228273391724,1.1038228273391724
636,0.9959999918937683,0.026364333927631378,0.026364333927631378,1e-04,0.929111123085022,1.105668544769287,1.105668544769287
637,0.9940000176429749,0.020825592800974846,0.020825592800974846,1e-04,0.9282222390174866,1.108161449432373,1.108161449432373
638,0.9940000176429749,0.01613144390285015,0.01613144390285015,1e-04,0.9279999732971191,1.1107527017593384,1.1107527017593384
639,0.984000027179718,0.03064020164310932,0.03064020164310932,1e-04,0.9297778010368347,1.110701084136963,1.110701084136963
640,0.9959999918937683,0.017862563952803612,0.017862563952803612,1e-04,0.9306666851043701,1.1095279455184937,1.1095279455184937
641,0.9959999918937683,0.018443718552589417,0.018443718552589417,1e-04,0.9306666851043701,1.1074745655059814,1.1074745655059814
642,0.9919999837875366,0.02262662537395954,0.02262662537395954,1e-04,0.9313333630561829,1.106469988822937,1.106469988822937
643,0.9900000095367432,0.02612103708088398,0.02612103708088398,1e-04,0.9322222471237183,1.1059051752090454,1.1059051752090454
644,0.9919999837875366,0.02208467572927475,0.02208467572927475,1e-04,0.9322222471237183,1.105710506439209,1.105710506439209
645,0.9900000095367432,0.022772155702114105,0.022772155702114105,1e-04,0.9308888912200928,1.1052007675170898,1.1052007675170898
646,0.9879999756813049,0.02499423548579216,0.02499423548579216,1e-04,0.9288889169692993,1.106216311454773,1.106216311454773
647,0.9919999837875366,0.018415087834000587,0.018415087834000587,1e-04,0.9259999990463257,1.1095095872879028,1.1095095872879028
648,0.9919999837875366,0.02829376980662346,0.02829376980662346,1e-04,0.9246666431427002,1.1116868257522583,1.1116868257522583
649,0.9919999837875366,0.02583596669137478,0.02583596669137478,1e-04,0.9244444370269775,1.111221194267273,1.111221194267273
650,0.9959999918937683,0.016120821237564087,0.016120821237564087,1e-04,0.9255555272102356,1.108547329902649,1.108547329902649
651,1.0,0.016527686268091202,0.016527686268091202,1e-04,0.9268888831138611,1.1065174341201782,1.1065174341201782
652,0.9940000176429749,0.022275462746620178,0.022275462746620178,1e-04,0.9275555610656738,1.105328917503357,1.105328917503357
653,0.9879999756813049,0.03045869804918766,0.03045869804918766,1e-04,0.9275555610656738,1.1051884889602661,1.1051884889602661
654,0.9919999837875366,0.021266741678118706,0.021266741678118706,1e-04,0.9273333549499512,1.1052179336547852,1.1052179336547852
655,0.9900000095367432,0.021998833864927292,0.021998833864927292,1e-04,0.9262222051620483,1.1057438850402832,1.1057438850402832
656,0.9959999918937683,0.02173505164682865,0.02173505164682865,1e-04,0.9255555272102356,1.1070431470870972,1.1070431470870972
657,0.9900000095367432,0.024285707622766495,0.024285707622766495,1e-04,0.9237777590751648,1.1089142560958862,1.1089142560958862
658,1.0,0.013353705406188965,0.013353705406188965,1e-04,0.9246666431427002,1.1074738502502441,1.1074738502502441
659,0.9900000095367432,0.03246825933456421,0.03246825933456421,1e-04,0.9286666512489319,1.1018335819244385,1.1018335819244385
660,0.9919999837875366,0.02496315725147724,0.02496315725147724,1e-04,0.9313333630561829,1.0986970663070679,1.0986970663070679
661,0.9879999756813049,0.026873458176851273,0.026873458176851273,1e-04,0.9326666593551636,1.0987566709518433,1.0987566709518433
662,0.9940000176429749,0.015399137511849403,0.015399137511849403,1e-04,0.9324444532394409,1.0994497537612915,1.0994497537612915
663,0.984000027179718,0.04366806894540787,0.04366806894540787,1e-04,0.9311110973358154,1.1008820533752441,1.1008820533752441
664,0.9940000176429749,0.021886304020881653,0.021886304020881653,1e-04,0.9311110973358154,1.1031618118286133,1.1031618118286133
665,0.9900000095367432,0.02571956440806389,0.02571956440806389,1e-04,0.9279999732971191,1.1068413257598877,1.1068413257598877
666,0.9940000176429749,0.024750841781497,0.024750841781497,1e-04,0.9253333210945129,1.1102869510650635,1.1102869510650635
667,0.9860000014305115,0.02789190225303173,0.02789190225303173,1e-04,0.9251111149787903,1.1111260652542114,1.1111260652542114
668,0.9860000014305115,0.026168761774897575,0.026168761774897575,1e-04,0.9255555272102356,1.1112804412841797,1.1112804412841797
669,0.9980000257492065,0.01349354162812233,0.01349354162812233,1e-04,0.9259999990463257,1.1100431680679321,1.1100431680679321
670,0.9919999837875366,0.023848609998822212,0.023848609998822212,1e-04,0.929111123085022,1.1087208986282349,1.1087208986282349
671,0.9879999756813049,0.01685214415192604,0.01685214415192604,1e-04,0.93022221326828,1.1080553531646729,1.1080553531646729
672,0.9959999918937683,0.016566745936870575,0.016566745936870575,1e-04,0.9315555691719055,1.1086788177490234,1.1086788177490234
673,0.9900000095367432,0.022341042757034302,0.022341042757034302,1e-04,0.9324444532394409,1.109431505203247,1.109431505203247
674,0.9940000176429749,0.021139726042747498,0.021139726042747498,1e-04,0.9322222471237183,1.112257719039917,1.112257719039917
675,0.9860000014305115,0.026751333847641945,0.026751333847641945,1e-04,0.9304444193840027,1.115719199180603,1.115719199180603
676,0.9919999837875366,0.019342364743351936,0.019342364743351936,1e-04,0.9266666769981384,1.1212941408157349,1.1212941408157349
677,0.9940000176429749,0.018273737281560898,0.018273737281560898,1e-04,0.9228888750076294,1.1304852962493896,1.1304852962493896
678,0.9940000176429749,0.014522656798362732,0.014522656798362732,1e-04,0.9195555448532104,1.1401740312576294,1.1401740312576294
679,0.9959999918937683,0.016626296564936638,0.016626296564936638,1e-04,0.9200000166893005,1.143690586090088,1.143690586090088
680,0.9900000095367432,0.02401764504611492,0.02401764504611492,1e-04,0.9244444370269775,1.1377171277999878,1.1377171277999878
681,0.9980000257492065,0.013590521179139614,0.013590521179139614,1e-04,0.9279999732971191,1.133323311805725,1.133323311805725
682,0.9940000176429749,0.024147631600499153,0.024147631600499153,1e-04,0.9324444532394409,1.13307523727417,1.13307523727417
683,0.9819999933242798,0.03614030405879021,0.03614030405879021,1e-04,0.9340000152587891,1.1348668336868286,1.1348668336868286
684,0.9940000176429749,0.02050139382481575,0.02050139382481575,1e-04,0.9342222213745117,1.1364434957504272,1.1364434957504272
685,0.9940000176429749,0.020923882722854614,0.020923882722854614,1e-04,0.9333333373069763,1.135850429534912,1.135850429534912
686,0.9900000095367432,0.02678830176591873,0.02678830176591873,1e-04,0.9315555691719055,1.1374788284301758,1.1374788284301758
687,0.9879999756813049,0.033726345747709274,0.033726345747709274,1e-04,0.9262222051620483,1.141983985900879,1.141983985900879
688,0.9940000176429749,0.013143629767000675,0.013143629767000675,1e-04,0.9240000247955322,1.1493666172027588,1.1493666172027588
689,0.9879999756813049,0.026050107553601265,0.026050107553601265,1e-04,0.9197777509689331,1.1516259908676147,1.1516259908676147
690,0.984000027179718,0.03316241130232811,0.03316241130232811,1e-04,0.9228888750076294,1.1444194316864014,1.1444194316864014
691,1.0,0.017566585913300514,0.017566585913300514,1e-04,0.9264444708824158,1.1344821453094482,1.1344821453094482
692,0.9940000176429749,0.02475975640118122,0.02475975640118122,1e-04,0.9313333630561829,1.1278553009033203,1.1278553009033203
693,0.9940000176429749,0.016244174912571907,0.016244174912571907,1e-04,0.9337777495384216,1.1253372430801392,1.1253372430801392
694,0.9900000095367432,0.025738919153809547,0.025738919153809547,1e-04,0.9355555772781372,1.1235462427139282,1.1235462427139282
695,0.9940000176429749,0.020016569644212723,0.020016569644212723,1e-04,0.9355555772781372,1.121755838394165,1.121755838394165
696,0.9900000095367432,0.01895514689385891,0.01895514689385891,1e-04,0.9355555772781372,1.1192642450332642,1.1192642450332642
697,0.9860000014305115,0.027069518342614174,0.027069518342614174,1e-04,0.9331111311912537,1.1165238618850708,1.1165238618850708
698,0.9940000176429749,0.017634905874729156,0.017634905874729156,1e-04,0.9286666512489319,1.117318868637085,1.117318868637085
699,0.9919999837875366,0.02829176001250744,0.02829176001250744,1e-04,0.9240000247955322,1.123366117477417,1.123366117477417
700,0.9879999756813049,0.02315649576485157,0.02315649576485157,1e-04,0.9173333048820496,1.1359037160873413,1.1359037160873413
701,0.9919999837875366,0.023145373910665512,0.023145373910665512,1e-04,0.9166666865348816,1.1394743919372559,1.1394743919372559
702,0.9959999918937683,0.017113568261265755,0.017113568261265755,1e-04,0.9184444546699524,1.1335567235946655,1.1335567235946655
703,0.9819999933242798,0.032076530158519745,0.032076530158519745,1e-04,0.9264444708824158,1.1226121187210083,1.1226121187210083
704,0.9900000095367432,0.02668418549001217,0.02668418549001217,1e-04,0.9317777752876282,1.119483470916748,1.119483470916748
705,0.9879999756813049,0.02574036456644535,0.02574036456644535,1e-04,0.9326666593551636,1.120416522026062,1.120416522026062
706,0.9919999837875366,0.025754407048225403,0.025754407048225403,1e-04,0.9315555691719055,1.1217025518417358,1.1217025518417358
707,0.9919999837875366,0.019825704395771027,0.019825704395771027,1e-04,0.9286666512489319,1.1240979433059692,1.1240979433059692
708,0.9919999837875366,0.016893461346626282,0.016893461346626282,1e-04,0.9264444708824158,1.12721586227417,1.12721586227417
709,0.9940000176429749,0.020563988015055656,0.020563988015055656,1e-04,0.9266666769981384,1.1289641857147217,1.1289641857147217
710,0.9940000176429749,0.013837773352861404,0.013837773352861404,1e-04,0.9251111149787903,1.1316264867782593,1.1316264867782593
711,0.9919999837875366,0.021565619856119156,0.021565619856119156,1e-04,0.9251111149787903,1.135628581047058,1.135628581047058
712,0.9940000176429749,0.017877990379929543,0.017877990379929543,1e-04,0.9248889088630676,1.1375364065170288,1.1375364065170288
713,0.9940000176429749,0.01735326275229454,0.01735326275229454,1e-04,0.9262222051620483,1.137738585472107,1.137738585472107
714,0.9959999918937683,0.01781461387872696,0.01781461387872696,1e-04,0.9284444451332092,1.1374543905258179,1.1374543905258179
715,0.9860000014305115,0.03648722171783447,0.03648722171783447,1e-04,0.9286666512489319,1.1386555433273315,1.1386555433273315
716,0.9940000176429749,0.017752261832356453,0.017752261832356453,1e-04,0.9282222390174866,1.140395998954773,1.140395998954773
717,0.9900000095367432,0.021277517080307007,0.021277517080307007,1e-04,0.9273333549499512,1.1427016258239746,1.1427016258239746
718,0.9919999837875366,0.021431151777505875,0.021431151777505875,1e-04,0.9253333210945129,1.146348476409912,1.1463485956192017
719,0.9900000095367432,0.02092757448554039,0.02092757448554039,1e-04,0.9240000247955322,1.1486167907714844,1.1486167907714844
720,0.9980000257492065,0.016330143436789513,0.016330143436789513,1e-04,0.9240000247955322,1.1499440670013428,1.1499440670013428
721,0.9959999918937683,0.01647089049220085,0.01647089049220085,1e-04,0.9264444708824158,1.148131251335144,1.148131251335144
722,0.9879999756813049,0.023275552317500114,0.023275552317500114,1e-04,0.9271110892295837,1.1474851369857788,1.1474851369857788
723,0.9980000257492065,0.012946322560310364,0.012946322560310364,1e-04,0.9275555610656738,1.145841360092163,1.145841360092163
724,0.9919999837875366,0.020390400663018227,0.020390400663018227,1e-04,0.9279999732971191,1.1452642679214478,1.1452643871307373
725,0.9879999756813049,0.022156639024615288,0.022156639024615288,1e-04,0.9277777671813965,1.1452677249908447,1.1452677249908447
726,0.9919999837875366,0.024463551118969917,0.024463551118969917,1e-04,0.9271110892295837,1.1457593441009521,1.1457593441009521
727,0.9940000176429749,0.022735368460416794,0.022735368460416794,1e-04,0.9262222051620483,1.1457918882369995,1.1457918882369995
728,1.0,0.012931161560118198,0.012931161560118198,1e-04,0.9255555272102356,1.1460061073303223,1.1460061073303223
729,0.984000027179718,0.03400395065546036,0.03400395065546036,1e-04,0.921999990940094,1.1497242450714111,1.1497242450714111
730,0.9980000257492065,0.015925800427794456,0.015925800427794456,1e-04,0.921999990940094,1.1505142450332642,1.1505142450332642
731,0.9919999837875366,0.02070586197078228,0.02070586197078228,1e-04,0.9228888750076294,1.1504311561584473,1.1504311561584473
732,0.9919999837875366,0.02044561505317688,0.02044561505317688,1e-04,0.9264444708824158,1.147812008857727,1.147812008857727
733,0.9959999918937683,0.013415554538369179,0.013415554538369179,1e-04,0.9273333549499512,1.1477068662643433,1.1477068662643433
734,0.9919999837875366,0.01664191670715809,0.01664191670715809,1e-04,0.9282222390174866,1.1486893892288208,1.1486893892288208
735,0.9860000014305115,0.025350114330649376,0.025350114330649376,1e-04,0.9259999990463257,1.1518023014068604,1.1518023014068604
736,0.9959999918937683,0.02014385163784027,0.02014385163784027,1e-04,0.921999990940094,1.156427264213562,1.156427264213562
737,0.9940000176429749,0.01634984090924263,0.01634984090924263,1e-04,0.9222221970558167,1.1579535007476807,1.1579535007476807
738,0.9959999918937683,0.014747215434908867,0.014747215434908867,1e-04,0.9240000247955322,1.1556426286697388,1.1556426286697388
739,0.9940000176429749,0.01848037913441658,0.01848037913441658,1e-04,0.9264444708824158,1.1528488397598267,1.1528488397598267
740,0.9919999837875366,0.030362749472260475,0.030362749472260475,1e-04,0.9286666512489319,1.149239182472229,1.1492393016815186
741,0.9919999837875366,0.01654757745563984,0.01654757745563984,1e-04,0.9304444193840027,1.1473201513290405,1.1473201513290405
742,0.9940000176429749,0.019002430140972137,0.019002430140972137,1e-04,0.9284444451332092,1.1471039056777954,1.1471039056777954
743,0.9940000176429749,0.017547348514199257,0.017547348514199257,1e-04,0.925777792930603,1.1487319469451904,1.1487319469451904
744,0.9919999837875366,0.02136046066880226,0.02136046066880226,1e-04,0.9253333210945129,1.1485834121704102,1.1485834121704102
745,0.9959999918937683,0.010438390076160431,0.010438390076160431,1e-04,0.9246666431427002,1.1493474245071411,1.1493474245071411
746,0.9879999756813049,0.02297034114599228,0.02297034114599228,1e-04,0.9248889088630676,1.148305058479309,1.148305058479309
747,0.9900000095367432,0.02597113698720932,0.02597113698720932,1e-04,0.9259999990463257,1.1463111639022827,1.1463111639022827
748,0.9919999837875366,0.01996869221329689,0.01996869221329689,1e-04,0.9262222051620483,1.1463773250579834,1.1463773250579834
749,0.9900000095367432,0.019363608211278915,0.019363608211278915,1e-04,0.9271110892295837,1.1459347009658813,1.1459347009658813
750,0.9959999918937683,0.014028653502464294,0.014028653502464294,1e-04,0.9282222390174866,1.1465526819229126,1.1465526819229126
751,0.9940000176429749,0.015620926395058632,0.015620926395058632,1e-04,0.9279999732971191,1.1478058099746704,1.1478058099746704
752,0.9980000257492065,0.016092488542199135,0.016092488542199135,1e-04,0.9284444451332092,1.1493637561798096,1.1493637561798096
753,0.9940000176429749,0.02261030115187168,0.02261030115187168,1e-04,0.929111123085022,1.152446985244751,1.152446985244751
754,0.9940000176429749,0.015128862112760544,0.015128862112760544,1e-04,0.9300000071525574,1.155534029006958,1.155534029006958
755,0.9919999837875366,0.015673983842134476,0.015673983842134476,1e-04,0.93022221326828,1.1599496603012085,1.1599496603012085
756,0.9860000014305115,0.03207501769065857,0.03207501769065857,1e-04,0.9277777671813965,1.1652777194976807,1.1652777194976807
757,0.9860000014305115,0.030480651184916496,0.030480651184916496,1e-04,0.9253333210945129,1.1712933778762817,1.1712933778762817
758,0.9879999756813049,0.026090005412697792,0.026090005412697792,1e-04,0.921999990940094,1.1796208620071411,1.1796208620071411
759,0.9919999837875366,0.019457774236798286,0.019457774236798286,1e-04,0.9215555787086487,1.184668779373169,1.184668779373169
760,0.9940000176429749,0.016598349437117577,0.016598349437117577,1e-04,0.921999990940094,1.1875866651535034,1.1875866651535034
761,0.9940000176429749,0.02162528969347477,0.02162528969347477,1e-04,0.9240000247955322,1.185573697090149,1.185573697090149
762,0.9980000257492065,0.010325483977794647,0.010325483977794647,1e-04,0.9284444451332092,1.1840927600860596,1.1840927600860596
763,0.9959999918937683,0.017086194828152657,0.017086194828152657,1e-04,0.9306666851043701,1.1862609386444092,1.1862610578536987
764,0.9940000176429749,0.017675621435046196,0.017675621435046196,1e-04,0.9308888912200928,1.189632534980774,1.189632534980774
765,0.9919999837875366,0.02389281801879406,0.02389281801879406,1e-04,0.9322222471237183,1.1919084787368774,1.1919084787368774
766,0.9940000176429749,0.016555776819586754,0.016555776819586754,1e-04,0.9319999814033508,1.1939570903778076,1.1939570903778076
767,0.9959999918937683,0.010355493053793907,0.010355493053793907,1e-04,0.9308888912200928,1.196327805519104,1.196327805519104
768,0.9940000176429749,0.013199876062572002,0.013199876062572002,1e-04,0.9306666851043701,1.198905348777771,1.198905348777771
769,0.9940000176429749,0.015451361425220966,0.015451361425220966,1e-04,0.9279999732971191,1.2031538486480713,1.2031538486480713
770,0.9959999918937683,0.01504580955952406,0.01504580955952406,1e-04,0.9244444370269775,1.2092572450637817,1.2092572450637817
771,0.9860000014305115,0.023225927725434303,0.023225927725434303,1e-04,0.9231111407279968,1.215407133102417,1.215407133102417
772,0.9940000176429749,0.01798059046268463,0.01798059046268463,1e-04,0.9215555787086487,1.2193838357925415,1.2193838357925415
773,0.9879999756813049,0.026640089228749275,0.026640089228749275,1e-04,0.9233333468437195,1.2183176279067993,1.2183176279067993
774,0.9919999837875366,0.023750992491841316,0.023750992491841316,1e-04,0.9240000247955322,1.214058756828308,1.214058756828308
775,0.984000027179718,0.029970386996865273,0.029970386996865273,1e-04,0.9271110892295837,1.211418628692627,1.211418628692627
776,0.9959999918937683,0.017322774976491928,0.017322774976491928,1e-04,0.9295555353164673,1.210365891456604,1.210365891456604
777,0.9959999918937683,0.01198086142539978,0.01198086142539978,1e-04,0.93022221326828,1.2113597393035889,1.2113597393035889
778,0.9919999837875366,0.02692890726029873,0.02692890726029873,1e-04,0.9300000071525574,1.2135579586029053,1.2135579586029053
779,0.9940000176429749,0.01711009256541729,0.01711009256541729,1e-04,0.9279999732971191,1.2157838344573975,1.2157838344573975
780,0.9919999837875366,0.019231416285037994,0.019231416285037994,1e-04,0.9268888831138611,1.2169665098190308,1.2169665098190308
781,0.9919999837875366,0.022212106734514236,0.022212106734514236,1e-04,0.9255555272102356,1.218224048614502,1.218224048614502
782,0.9980000257492065,0.011798173189163208,0.011798173189163208,1e-04,0.9255555272102356,1.218454122543335,1.218454122543335
783,0.9919999837875366,0.026444613933563232,0.026444613933563232,1e-04,0.9237777590751648,1.220255732536316,1.220255732536316
784,0.9940000176429749,0.020954053848981857,0.020954053848981857,1e-04,0.9251111149787903,1.219763994216919,1.219763994216919
785,0.9919999837875366,0.02449924498796463,0.02449924498796463,1e-04,0.9248889088630676,1.2215492725372314,1.2215492725372314
786,0.9919999837875366,0.017293281853199005,0.017293281853199005,1e-04,0.9215555787086487,1.2252434492111206,1.2252434492111206
787,0.9959999918937683,0.01625296100974083,0.01625296100974083,1e-04,0.9215555787086487,1.2279900312423706,1.2279900312423706
788,0.9959999918937683,0.015253481455147266,0.015253481455147266,1e-04,0.9235555529594421,1.2248940467834473,1.2248940467834473
789,0.9959999918937683,0.016481101512908936,0.016481101512908936,1e-04,0.9253333210945129,1.22149658203125,1.22149658203125
790,0.9980000257492065,0.01124519482254982,0.01124519482254982,1e-04,0.9282222390174866,1.217703938484192,1.217703938484192
791,0.9860000014305115,0.024879204109311104,0.024879204109311104,1e-04,0.9300000071525574,1.2158464193344116,1.2158464193344116
792,0.9940000176429749,0.020644163712859154,0.020644163712859154,1e-04,0.9313333630561829,1.2151743173599243,1.2151743173599243
793,0.9919999837875366,0.016586627811193466,0.016586627811193466,1e-04,0.9313333630561829,1.215551495552063,1.215551495552063
794,0.9940000176429749,0.021843494847416878,0.021843494847416878,1e-04,0.9297778010368347,1.2170743942260742,1.2170742750167847
795,0.9980000257492065,0.015022659674286842,0.015022659674286842,1e-04,0.9295555353164673,1.219190001487732,1.219190001487732
796,0.9900000095367432,0.026046257466077805,0.026046257466077805,1e-04,0.9288889169692993,1.220321774482727,1.220321774482727
797,0.9940000176429749,0.015617952682077885,0.015617952682077885,1e-04,0.9295555353164673,1.2192448377609253,1.2192448377609253
798,0.9940000176429749,0.013898673467338085,0.013898673467338085,1e-04,0.9293333292007446,1.2180242538452148,1.2180242538452148
799,0.9959999918937683,0.021668750792741776,0.021668750792741776,1e-04,0.9295555353164673,1.218130111694336,1.218130111694336
800,0.9900000095367432,0.029460838064551353,0.029460838064551353,1e-04,0.9295555353164673,1.2186192274093628,1.2186192274093628
801,0.9919999837875366,0.020269548520445824,0.020269548520445824,1e-04,0.9277777671813965,1.2202858924865723,1.2202858924865723
802,0.9940000176429749,0.021803557872772217,0.021803557872772217,1e-04,0.9268888831138611,1.221834421157837,1.221834421157837
803,0.9980000257492065,0.015536009334027767,0.015536009334027767,1e-04,0.9262222051620483,1.2234593629837036,1.2234593629837036
804,0.9919999837875366,0.018849756568670273,0.018849756568670273,1e-04,0.9255555272102356,1.2262494564056396,1.2262494564056396
805,0.9919999837875366,0.023609409108757973,0.023609409108757973,1e-04,0.9246666431427002,1.2277034521102905,1.2277034521102905
806,0.9879999756813049,0.030713342130184174,0.030713342130184174,1e-04,0.9235555529594421,1.2293245792388916,1.2293245792388916
807,0.9959999918937683,0.01937233656644821,0.01937233656644821,1e-04,0.9231111407279968,1.2297800779342651,1.2297800779342651
808,0.9919999837875366,0.024796467274427414,0.024796467274427414,1e-04,0.9228888750076294,1.2296024560928345,1.2296024560928345
809,0.9940000176429749,0.019269634038209915,0.019269634038209915,1e-04,0.9246666431427002,1.227031946182251,1.227031946182251
810,0.9940000176429749,0.02205515280365944,0.02205515280365944,1e-04,0.9277777671813965,1.2249960899353027,1.2249960899353027
811,0.9959999918937683,0.009166496805846691,0.009166496805846691,1e-04,0.9304444193840027,1.2237151861190796,1.2237151861190796
812,0.9900000095367432,0.0225151926279068,0.0225151926279068,1e-04,0.9306666851043701,1.225249171257019,1.225249171257019
813,0.9919999837875366,0.017265789210796356,0.017265789210796356,1e-04,0.9293333292007446,1.2272387742996216,1.2272387742996216
814,0.9919999837875366,0.018307995051145554,0.018307995051145554,1e-04,0.9275555610656738,1.2331162691116333,1.2331162691116333
815,0.9940000176429749,0.017134344205260277,0.017134344205260277,1e-04,0.9282222390174866,1.2369602918624878,1.2369602918624878
816,0.9919999837875366,0.02167893946170807,0.02167893946170807,1e-04,0.9264444708824158,1.2419325113296509,1.2419325113296509
817,0.9980000257492065,0.016404960304498672,0.016404960304498672,1e-04,0.9246666431427002,1.246397614479065,1.246397614479065
818,0.9940000176429749,0.020469440147280693,0.020469440147280693,1e-04,0.9253333210945129,1.2488735914230347,1.2488735914230347
819,0.9940000176429749,0.016288090497255325,0.016288090497255325,1e-04,0.925777792930603,1.250789999961853,1.250789999961853
820,0.9959999918937683,0.020483307540416718,0.020483307540416718,1e-04,0.9262222051620483,1.2534838914871216,1.2534838914871216
821,0.9860000014305115,0.02521491050720215,0.02521491050720215,1e-04,0.9273333549499512,1.254563331604004,1.254563331604004
822,0.9919999837875366,0.027690181508660316,0.027690181508660316,1e-04,0.929111123085022,1.2549934387207031,1.2549934387207031
823,0.9959999918937683,0.015423789620399475,0.015423789620399475,1e-04,0.9297778010368347,1.2562165260314941,1.2562165260314941
824,0.9959999918937683,0.01456213928759098,0.01456213928759098,1e-04,0.9295555353164673,1.2583109140396118,1.2583109140396118
825,0.9879999756813049,0.021694742143154144,0.021694742143154144,1e-04,0.9284444451332092,1.2618554830551147,1.2618554830551147
826,0.9959999918937683,0.015530385076999664,0.015530385076999664,1e-04,0.9268888831138611,1.265181303024292,1.265181303024292
827,0.9980000257492065,0.015761755406856537,0.015761755406856537,1e-04,0.9268888831138611,1.2674022912979126,1.2674022912979126
828,0.9959999918937683,0.015267559327185154,0.015267559327185154,1e-04,0.9271110892295837,1.269377589225769,1.269377589225769
829,0.9959999918937683,0.010356146842241287,0.010356146842241287,1e-04,0.9277777671813965,1.2710431814193726,1.2710431814193726
830,0.9919999837875366,0.01866394281387329,0.01866394281387329,1e-04,0.9273333549499512,1.2730644941329956,1.2730644941329956
831,0.9900000095367432,0.029389094561338425,0.029389094561338425,1e-04,0.9275555610656738,1.2741754055023193,1.2741754055023193
832,0.9919999837875366,0.02123858593404293,0.02123858593404293,1e-04,0.9275555610656738,1.2759164571762085,1.2759164571762085
833,0.9959999918937683,0.014397813938558102,0.014397813938558102,1e-04,0.9271110892295837,1.2771772146224976,1.2771772146224976
834,0.9959999918937683,0.015889445319771767,0.015889445319771767,1e-04,0.9271110892295837,1.2779953479766846,1.2779953479766846
835,0.9919999837875366,0.022763460874557495,0.022763460874557495,1e-04,0.9282222390174866,1.2780976295471191,1.2780976295471191
836,0.9900000095367432,0.02242296002805233,0.02242296002805233,1e-04,0.9273333549499512,1.2797738313674927,1.2797738313674927
837,0.9940000176429749,0.012465653009712696,0.012465653009712696,1e-04,0.9253333210945129,1.282578945159912,1.282578945159912
838,1.0,0.01015149150043726,0.01015149150043726,1e-04,0.9246666431427002,1.2845640182495117,1.2845640182495117
839,0.9940000176429749,0.019406449049711227,0.019406449049711227,1e-04,0.9231111407279968,1.2875876426696777,1.2875876426696777
840,0.9879999756813049,0.023539645597338676,0.023539645597338676,1e-04,0.9231111407279968,1.2899596691131592,1.2899596691131592
841,0.9980000257492065,0.016326500102877617,0.016326500102877617,1e-04,0.9228888750076294,1.2907378673553467,1.2907378673553467
842,0.9940000176429749,0.017496757209300995,0.017496757209300995,1e-04,0.9255555272102356,1.2876242399215698,1.2876242399215698
843,0.9940000176429749,0.020570877939462662,0.020570877939462662,1e-04,0.9286666512489319,1.2853988409042358,1.2853988409042358
844,0.9940000176429749,0.01624685898423195,0.01624685898423195,1e-04,0.93022221326828,1.2854838371276855,1.2854838371276855
845,0.9919999837875366,0.014435740187764168,0.014435740187764168,1e-04,0.9311110973358154,1.28524911403656,1.28524911403656
846,0.9940000176429749,0.018305253237485886,0.018305253237485886,1e-04,0.9306666851043701,1.2853890657424927,1.2853890657424927
847,0.9940000176429749,0.017482787370681763,0.017482787370681763,1e-04,0.9295555353164673,1.2851386070251465,1.2851386070251465
848,0.9900000095367432,0.017423463985323906,0.017423463985323906,1e-04,0.9268888831138611,1.2858641147613525,1.2858641147613525
849,0.9900000095367432,0.027908749878406525,0.027908749878406525,1e-04,0.9240000247955322,1.2871999740600586,1.2871999740600586
850,0.9959999918937683,0.01624164544045925,0.01624164544045925,1e-04,0.9228888750076294,1.290478229522705,1.290478229522705
851,1.0,0.01279434747993946,0.01279434747993946,1e-04,0.9213333129882812,1.2897124290466309,1.2897124290466309
852,0.9940000176429749,0.017698829993605614,0.017698829993605614,1e-04,0.9231111407279968,1.2862060070037842,1.2862060070037842
853,0.9940000176429749,0.024125369265675545,0.024125369265675545,1e-04,0.9237777590751648,1.2822718620300293,1.2822718620300293
854,0.9919999837875366,0.017224906012415886,0.017224906012415886,1e-04,0.9275555610656738,1.278002142906189,1.278002142906189
855,0.9940000176429749,0.018287116661667824,0.018287116661667824,1e-04,0.9297778010368347,1.276440978050232,1.276440978050232
856,0.9959999918937683,0.011272113770246506,0.011272113770246506,1e-04,0.9311110973358154,1.2757817506790161,1.2757817506790161
857,0.9919999837875366,0.02064358815550804,0.02064358815550804,1e-04,0.9311110973358154,1.2760905027389526,1.2760905027389526
858,0.9879999756813049,0.018051670864224434,0.018051670864224434,1e-04,0.9308888912200928,1.2763152122497559,1.2763152122497559
859,0.9919999837875366,0.023359199985861778,0.023359199985861778,1e-04,0.9313333630561829,1.2763557434082031,1.2763557434082031
860,0.9900000095367432,0.018933504819869995,0.018933504819869995,1e-04,0.93022221326828,1.2770576477050781,1.2770576477050781
861,0.9919999837875366,0.013447628356516361,0.013447628356516361,1e-04,0.9293333292007446,1.2782200574874878,1.2782200574874878
862,0.9959999918937683,0.01425821054726839,0.01425821054726839,1e-04,0.9262222051620483,1.280895709991455,1.280895709991455
863,0.9900000095367432,0.02127542532980442,0.02127542532980442,1e-04,0.9248889088630676,1.2842092514038086,1.2842092514038086
864,0.9879999756813049,0.019154351204633713,0.019154351204633713,1e-04,0.9197777509689331,1.2919106483459473,1.2919106483459473
865,0.9940000176429749,0.014970406889915466,0.014970406889915466,1e-04,0.9193333387374878,1.2936595678329468,1.2936595678329468
866,0.9879999756813049,0.02448170818388462,0.02448170818388462,1e-04,0.9240000247955322,1.2855017185211182,1.2855017185211182
867,0.9919999837875366,0.024849629029631615,0.024849629029631615,1e-04,0.9300000071525574,1.279393196105957,1.279393196105957
868,0.9919999837875366,0.023543672636151314,0.023543672636151314,1e-04,0.9326666593551636,1.2788846492767334,1.2788846492767334
869,0.9959999918937683,0.013455755077302456,0.013455755077302456,1e-04,0.9346666932106018,1.2800945043563843,1.2800945043563843
870,0.9959999918937683,0.014414601027965546,0.014414601027965546,1e-04,0.9348888993263245,1.2810726165771484,1.2810726165771484
871,0.9860000014305115,0.024261970072984695,0.024261970072984695,1e-04,0.9337777495384216,1.2806365489959717,1.2806365489959717
872,0.9940000176429749,0.018611706793308258,0.018611706793308258,1e-04,0.9311110973358154,1.2804977893829346,1.2804977893829346
873,0.9919999837875366,0.01524127833545208,0.01524127833545208,1e-04,0.9282222390174866,1.282244086265564,1.282244086265564
874,1.0,0.007617654744535685,0.007617654744535685,1e-04,0.9253333210945129,1.2852473258972168,1.2852473258972168
875,0.9959999918937683,0.01629054918885231,0.01629054918885231,1e-04,0.9237777590751648,1.2879712581634521,1.2879712581634521
876,0.9940000176429749,0.018857549875974655,0.018857549875974655,1e-04,0.9233333468437195,1.290094017982483,1.290094017982483
877,0.9980000257492065,0.010623285546898842,0.010623285546898842,1e-04,0.9231111407279968,1.29085373878479,1.29085373878479
878,0.9980000257492065,0.011928290128707886,0.011928290128707886,1e-04,0.9253333210945129,1.2903697490692139,1.2903697490692139
879,0.9900000095367432,0.018349461257457733,0.018349461257457733,1e-04,0.9259999990463257,1.2906394004821777,1.2906394004821777
880,0.9919999837875366,0.020905712619423866,0.020905712619423866,1e-04,0.9266666769981384,1.291361927986145,1.291361927986145
881,0.9980000257492065,0.0133109325543046,0.0133109325543046,1e-04,0.9268888831138611,1.2918509244918823,1.2918509244918823
882,0.9919999837875366,0.021858491003513336,0.021858491003513336,1e-04,0.9275555610656738,1.292164921760559,1.292164921760559
883,0.9980000257492065,0.009758939035236835,0.009758939035236835,1e-04,0.9277777671813965,1.2928845882415771,1.2928845882415771
884,0.9959999918937683,0.012869306840002537,0.012869306840002537,1e-04,0.9273333549499512,1.2937252521514893,1.2937252521514893
885,0.9959999918937683,0.013448203913867474,0.013448203913867474,1e-04,0.9271110892295837,1.2943012714385986,1.2943012714385986
886,0.9959999918937683,0.012480167672038078,0.012480167672038078,1e-04,0.9264444708824158,1.295455813407898,1.295455813407898
887,0.9959999918937683,0.012403402477502823,0.012403402477502823,1e-04,0.925777792930603,1.2964098453521729,1.2964098453521729
888,0.9919999837875366,0.023726139217615128,0.023726139217615128,1e-04,0.9248889088630676,1.2974274158477783,1.2974274158477783
889,0.9940000176429749,0.018773535266518593,0.018773535266518593,1e-04,0.9240000247955322,1.2995530366897583,1.2995530366897583
890,0.9940000176429749,0.012700071558356285,0.012700071558356285,1e-04,0.9226666688919067,1.3013079166412354,1.3013079166412354
891,1.0,0.013692518696188927,0.013692518696188927,1e-04,0.9222221970558167,1.3016331195831299,1.3016331195831299
892,0.9959999918937683,0.012933960184454918,0.012933960184454918,1e-04,0.9228888750076294,1.300357699394226,1.300357699394226
893,0.9900000095367432,0.024310853332281113,0.024310853332281113,1e-04,0.9235555529594421,1.2970784902572632,1.2970784902572632
894,0.9900000095367432,0.023380374535918236,0.023380374535918236,1e-04,0.9259999990463257,1.2955732345581055,1.2955732345581055
895,0.9900000095367432,0.02212447114288807,0.02212447114288807,1e-04,0.9253333210945129,1.2961889505386353,1.2961889505386353
896,0.9879999756813049,0.021941067650914192,0.021941067650914192,1e-04,0.9240000247955322,1.2974276542663574,1.2974276542663574
897,0.9900000095367432,0.029817616567015648,0.029817616567015648,1e-04,0.9208889007568359,1.3000483512878418,1.3000483512878418
898,0.9919999837875366,0.014998937956988811,0.014998937956988811,1e-04,0.9204444289207458,1.3037164211273193,1.3037164211273193
899,0.9940000176429749,0.014303023926913738,0.014303023926913738,1e-04,0.9195555448532104,1.3074558973312378,1.3074558973312378
900,0.9900000095367432,0.019148850813508034,0.019148850813508034,1e-04,0.9182222485542297,1.3122423887252808,1.3122423887252808
901,0.9919999837875366,0.020261066034436226,0.020261066034436226,1e-04,0.9177777767181396,1.3156909942626953,1.3156909942626953
902,0.9940000176429749,0.020092938095331192,0.020092938095331192,1e-04,0.918666660785675,1.3174830675125122,1.3174830675125122
903,0.984000027179718,0.032420430332422256,0.032420430332422256,1e-04,0.9208889007568359,1.3142507076263428,1.3142507076263428
904,0.9980000257492065,0.01222858764231205,0.01222858764231205,1e-04,0.9235555529594421,1.311940312385559,1.311940312385559
905,0.9959999918937683,0.013749295845627785,0.013749295845627785,1e-04,0.9266666769981384,1.3115696907043457,1.3115696907043457
906,0.9919999837875366,0.01487286388874054,0.01487286388874054,1e-04,0.9271110892295837,1.313169002532959,1.313169002532959
907,0.9959999918937683,0.01118754968047142,0.01118754968047142,1e-04,0.9275555610656738,1.3154091835021973,1.3154091835021973
908,0.9940000176429749,0.014730981551110744,0.014730981551110744,1e-04,0.9277777671813965,1.3179384469985962,1.3179384469985962
909,0.9980000257492065,0.015784544870257378,0.015784544870257378,1e-04,0.9282222390174866,1.320193886756897,1.320193886756897
910,0.9959999918937683,0.01032140851020813,0.01032140851020813,1e-04,0.929111123085022,1.3217660188674927,1.3217660188674927
911,0.9940000176429749,0.023706084117293358,0.023706084117293358,1e-04,0.9284444451332092,1.3221238851547241,1.3221238851547241
912,0.9980000257492065,0.010662628337740898,0.010662628337740898,1e-04,0.9284444451332092,1.3221877813339233,1.3221877813339233
913,0.9900000095367432,0.029856644570827484,0.029856644570827484,1e-04,0.9268888831138611,1.3217873573303223,1.3217873573303223
914,0.9959999918937683,0.01724807731807232,0.01724807731807232,1e-04,0.9251111149787903,1.3228676319122314,1.3228676319122314
915,0.9940000176429749,0.015040356665849686,0.015040356665849686,1e-04,0.9248889088630676,1.323696255683899,1.323696255683899
916,0.9980000257492065,0.014356977306306362,0.014356977306306362,1e-04,0.9251111149787903,1.322800874710083,1.322800874710083
917,0.9959999918937683,0.012130515649914742,0.012130515649914742,1e-04,0.925777792930603,1.3214584589004517,1.3214584589004517
918,0.9959999918937683,0.011884878389537334,0.011884878389537334,1e-04,0.9268888831138611,1.3187627792358398,1.3187627792358398
919,0.9919999837875366,0.016589613631367683,0.016589613631367683,1e-04,0.9282222390174866,1.3169816732406616,1.3169816732406616
920,0.9919999837875366,0.019081909209489822,0.019081909209489822,1e-04,0.9282222390174866,1.3164341449737549,1.3164341449737549
921,0.9919999837875366,0.015498166903853416,0.015498166903853416,1e-04,0.9275555610656738,1.31721031665802,1.31721031665802
922,0.9959999918937683,0.013494953513145447,0.013494953513145447,1e-04,0.9264444708824158,1.3197609186172485,1.3197609186172485
923,0.9959999918937683,0.01215901505202055,0.01215901505202055,1e-04,0.9246666431427002,1.3195459842681885,1.3195459842681885
924,0.9980000257492065,0.013779329136013985,0.013779329136013985,1e-04,0.9253333210945129,1.3175896406173706,1.3175896406173706
925,0.9900000095367432,0.01399798784404993,0.01399798784404993,1e-04,0.9255555272102356,1.3162015676498413,1.3162015676498413
926,0.9980000257492065,0.010140021331608295,0.010140021331608295,1e-04,0.9259999990463257,1.3144872188568115,1.3144872188568115
927,0.9940000176429749,0.012592962943017483,0.012592962943017483,1e-04,0.9255555272102356,1.3144739866256714,1.3144739866256714
928,0.9980000257492065,0.013954052701592445,0.013954052701592445,1e-04,0.925777792930603,1.3150904178619385,1.3150904178619385
929,0.9959999918937683,0.013575716875493526,0.013575716875493526,1e-04,0.9251111149787903,1.3157711029052734,1.3157711029052734
930,0.9919999837875366,0.01446521282196045,0.01446521282196045,1e-04,0.9228888750076294,1.3186566829681396,1.3186566829681396
931,0.9940000176429749,0.01693599671125412,0.01693599671125412,1e-04,0.9222221970558167,1.3222085237503052,1.3222085237503052
932,0.9940000176429749,0.02943236567080021,0.02943236567080021,1e-04,0.9211111068725586,1.3243563175201416,1.3243563175201416
933,0.9900000095367432,0.024695098400115967,0.024695098400115967,1e-04,0.9222221970558167,1.319920301437378,1.319920301437378
934,0.9919999837875366,0.016713406890630722,0.016713406890630722,1e-04,0.9255555272102356,1.3152645826339722,1.3152645826339722
935,0.9919999837875366,0.01841161772608757,0.01841161772608757,1e-04,0.9268888831138611,1.3131780624389648,1.3131780624389648
936,0.9940000176429749,0.011144747957587242,0.011144747957587242,1e-04,0.9284444451332092,1.3120861053466797,1.3120861053466797
937,0.9959999918937683,0.01715492643415928,0.01715492643415928,1e-04,0.9295555353164673,1.3113887310028076,1.3113887310028076
938,0.9940000176429749,0.01214827410876751,0.01214827410876751,1e-04,0.9293333292007446,1.3108315467834473,1.3108315467834473
939,0.9919999837875366,0.013209614902734756,0.013209614902734756,1e-04,0.9273333549499512,1.3109889030456543,1.3109889030456543
940,0.9940000176429749,0.015657536685466766,0.015657536685466766,1e-04,0.9255555272102356,1.31352698802948,1.31352698802948
941,0.9959999918937683,0.011655222624540329,0.011655222624540329,1e-04,0.9217777848243713,1.3183919191360474,1.3183919191360474
942,0.9980000257492065,0.010290444828569889,0.010290444828569889,1e-04,0.9193333387374878,1.3226983547210693,1.3226983547210693
943,0.9980000257492065,0.011514149606227875,0.011514149606227875,1e-04,0.9193333387374878,1.3234306573867798,1.3234306573867798
944,0.9980000257492065,0.010652651078999043,0.010652651078999043,1e-04,0.9197777509689331,1.322684645652771,1.322684645652771
945,0.9940000176429749,0.015493318438529968,0.015493318438529968,1e-04,0.9226666688919067,1.3181607723236084,1.3181607723236084
946,0.9959999918937683,0.014435939490795135,0.014435939490795135,1e-04,0.9266666769981384,1.3151224851608276,1.3151224851608276
947,0.9959999918937683,0.010325813665986061,0.010325813665986061,1e-04,0.9275555610656738,1.314124345779419,1.314124345779419
