epoch,accuracy,categorical_crossentropy,loss,lr,val_accuracy,val_categorical_crossentropy,val_loss
0,0.24199999868869781,1.6088038682937622,1.6088038682937622,0.001,0.8579999804496765,0.9449878334999084,0.9449878334999084
1,0.8080000281333923,0.888991117477417,0.888991117477417,0.001,0.7433333396911621,0.6687273383140564,0.6687273383140564
2,0.7080000042915344,0.6744363307952881,0.6744363307952881,0.001,0.9082221984863281,0.5756118297576904,0.5756118297576904
3,0.9160000085830688,0.5826185941696167,0.5826185941696167,0.001,0.9122222065925598,0.5297093987464905,0.5297093987464905
4,0.9139999747276306,0.5418596267700195,0.5418596267700195,0.001,0.9139999747276306,0.47344744205474854,0.4734474718570709
5,0.9259999990463257,0.4839802086353302,0.4839802086353302,0.001,0.9166666865348816,0.39801523089408875,0.39801523089408875
6,0.9259999990463257,0.39589425921440125,0.39589425921440125,0.001,0.9164444208145142,0.3355681002140045,0.3355681002140045
7,0.9259999990463257,0.3128942549228668,0.3128942549228668,0.001,0.9151111245155334,0.3126254677772522,0.3126254677772522
8,0.921999990940094,0.2722568213939667,0.2722568213939667,0.001,0.9179999828338623,0.32870322465896606,0.32870322465896606
9,0.9340000152587891,0.2745879292488098,0.2745879292488098,0.001,0.9191111326217651,0.33954980969429016,0.33954980969429016
10,0.9259999990463257,0.2895963788032532,0.2895963788032532,0.001,0.9195555448532104,0.321721613407135,0.321721613407135
11,0.9240000247955322,0.2596883475780487,0.2596883475780487,0.001,0.9233333468437195,0.29429736733436584,0.29429736733436584
12,0.9340000152587891,0.230955109000206,0.230955109000206,0.001,0.925777792930603,0.27909472584724426,0.27909472584724426
13,0.9399999976158142,0.21439827978610992,0.21439827978610992,0.001,0.9282222390174866,0.28046876192092896,0.28046876192092896
14,0.9359999895095825,0.21256539225578308,0.21256539225578308,0.001,0.9282222390174866,0.28888919949531555,0.28888919949531555
15,0.9380000233650208,0.20528869330883026,0.20528869330883026,0.001,0.9282222390174866,0.2951902747154236,0.2951902747154236
16,0.9440000057220459,0.20047299563884735,0.20047299563884735,0.001,0.929111123085022,0.2957765758037567,0.2957765758037567
17,0.949999988079071,0.19628119468688965,0.19628119468688965,0.001,0.9313333630561829,0.2917099893093109,0.2917099893093109
18,0.9580000042915344,0.18890249729156494,0.18890249729156494,0.001,0.9331111311912537,0.2854907512664795,0.2854907512664795
19,0.9599999785423279,0.1850307732820511,0.1850307732820511,0.001,0.9337777495384216,0.279072105884552,0.279072105884552
20,0.9580000042915344,0.17191284894943237,0.17191284894943237,0.001,0.9357777833938599,0.27483198046684265,0.27483198046684265
21,0.9539999961853027,0.15595757961273193,0.15595757961273193,0.001,0.9353333115577698,0.2743094563484192,0.2743094563484192
22,0.9559999704360962,0.15191228687763214,0.15191228687763214,0.001,0.9364444613456726,0.2754879593849182,0.2754879593849182
23,0.9559999704360962,0.14765949547290802,0.14765949547290802,0.001,0.9362221956253052,0.2755482494831085,0.2755482494831085
24,0.9559999704360962,0.14069414138793945,0.14069414138793945,0.001,0.9368888735771179,0.27560266852378845,0.27560266852378845
25,0.9599999785423279,0.137029230594635,0.137029230594635,0.001,0.9362221956253052,0.2783108353614807,0.2783108353614807
26,0.9559999704360962,0.13727112114429474,0.13727112114429474,0.001,0.9344444274902344,0.2839045822620392,0.2839045822620392
27,0.9559999704360962,0.1284169703722,0.1284169703722,0.001,0.9348888993263245,0.2898334562778473,0.2898334562778473
28,0.9679999947547913,0.11937814950942993,0.11937814950942993,0.001,0.9357777833938599,0.29418912529945374,0.29418912529945374
29,0.9660000205039978,0.11748938262462616,0.11748938262462616,0.001,0.9371111392974854,0.2983730733394623,0.2983730733394623
30,0.9679999947547913,0.10934631526470184,0.10934631526470184,0.001,0.9368888735771179,0.30556970834732056,0.30556970834732056
31,0.9679999947547913,0.10761501640081406,0.10761501640081406,0.001,0.9375555515289307,0.3155825138092041,0.3155825138092041
32,0.9639999866485596,0.11146172881126404,0.11146172881126404,0.001,0.9364444613456726,0.323329359292984,0.323329359292984
33,0.9639999866485596,0.11624341458082199,0.11624341458082199,0.001,0.9364444613456726,0.32726651430130005,0.32726651430130005
34,0.9700000286102295,0.10312701761722565,0.10312701761722565,0.001,0.9377777576446533,0.33283743262290955,0.33283743262290955
35,0.972000002861023,0.10576488077640533,0.10576488077640533,0.001,0.9377777576446533,0.3390604257583618,0.3390604257583618
36,0.9700000286102295,0.10477084666490555,0.10477084666490555,0.001,0.9384444355964661,0.3442079722881317,0.3442079722881317
37,0.9700000286102295,0.10307333618402481,0.10307333618402481,0.001,0.9384444355964661,0.34870341420173645,0.34870341420173645
38,0.9679999947547913,0.0961354672908783,0.0961354672908783,0.001,0.9366666674613953,0.35456112027168274,0.35456112027168274
39,0.9700000286102295,0.09728138893842697,0.09728138893842697,0.001,0.9357777833938599,0.3620866537094116,0.3620866537094116
40,0.9620000123977661,0.10375557094812393,0.10375557094812393,0.001,0.9344444274902344,0.36632969975471497,0.36632969975471497
41,0.9679999947547913,0.09431753307580948,0.09431753307580948,0.001,0.9344444274902344,0.3675907552242279,0.3675907552242279
42,0.9679999947547913,0.09467755258083344,0.09467755258083344,0.001,0.9364444613456726,0.36942392587661743,0.36942392587661743
43,0.9700000286102295,0.08597420156002045,0.08597420156002045,0.001,0.9368888735771179,0.3722086548805237,0.3722086548805237
44,0.972000002861023,0.0823933556675911,0.0823933556675911,0.001,0.9353333115577698,0.37452414631843567,0.37452414631843567
45,0.9760000109672546,0.08951874822378159,0.08951874822378159,0.001,0.9344444274902344,0.37832653522491455,0.37832653522491455
46,0.9760000109672546,0.08436492830514908,0.08436492830514908,0.001,0.9346666932106018,0.38323521614074707,0.38323521614074707
47,0.972000002861023,0.07955285906791687,0.07955285906791687,0.001,0.9362221956253052,0.3874238133430481,0.3874238133430481
48,0.9739999771118164,0.08212710171937943,0.08212710171937943,0.001,0.9391111135482788,0.39340850710868835,0.39340850710868835
49,0.9679999947547913,0.08892416208982468,0.08892416208982468,0.001,0.9388889074325562,0.40089333057403564,0.40089333057403564
50,0.972000002861023,0.08559759706258774,0.08559759706258774,0.001,0.9382222294807434,0.4100567698478699,0.4100567698478699
51,0.9760000109672546,0.0739499107003212,0.0739499107003212,0.001,0.9359999895095825,0.4237445294857025,0.4237445294857025
52,0.9779999852180481,0.08113934844732285,0.08113934844732285,0.001,0.9364444613456726,0.4299716353416443,0.4299716055393219
53,0.9700000286102295,0.091765396296978,0.091765396296978,0.001,0.9384444355964661,0.43015894293785095,0.43015894293785095
54,0.9760000109672546,0.07318609207868576,0.07318609207868576,0.001,0.9391111135482788,0.43312567472457886,0.43312567472457886
55,0.9739999771118164,0.07872739434242249,0.07872739434242249,0.001,0.9384444355964661,0.4359746277332306,0.4359746277332306
56,0.9739999771118164,0.0780266523361206,0.0780266523361206,0.001,0.9362221956253052,0.44207924604415894,0.44207924604415894
57,0.9760000109672546,0.0737256407737732,0.0737256407737732,0.001,0.9366666674613953,0.4410729706287384,0.4410729706287384
58,0.9760000109672546,0.0713801309466362,0.0713801309466362,0.001,0.9388889074325562,0.438381552696228,0.438381552696228
59,0.972000002861023,0.08449815958738327,0.08449815958738327,0.001,0.9391111135482788,0.4397527873516083,0.4397527873516083
60,0.9760000109672546,0.07369290292263031,0.07369290292263031,0.001,0.937333345413208,0.4427958130836487,0.4427958130836487
61,0.9760000109672546,0.07965746521949768,0.07965746521949768,0.001,0.9359999895095825,0.44760698080062866,0.44760698080062866
62,0.9739999771118164,0.07409442216157913,0.07409442216157913,0.001,0.9368888735771179,0.45371949672698975,0.45371949672698975
63,0.9760000109672546,0.07085853815078735,0.07085853815078735,0.001,0.9380000233650208,0.45860135555267334,0.45860135555267334
64,0.9760000109672546,0.07425396889448166,0.07425396889448166,0.001,0.9375555515289307,0.4658665955066681,0.4658665955066681
65,0.9700000286102295,0.07389169931411743,0.07389169931411743,0.001,0.9388889074325562,0.47209078073501587,0.47209078073501587
66,0.9819999933242798,0.06407680362462997,0.06407680362462997,0.001,0.9386666417121887,0.4800775945186615,0.4800775945186615
67,0.9800000190734863,0.07035437226295471,0.07035437226295471,0.001,0.9384444355964661,0.4875338673591614,0.4875338673591614
68,0.9800000190734863,0.06206459924578667,0.06206459924578667,0.001,0.937333345413208,0.4949457049369812,0.4949457049369812
69,0.9819999933242798,0.07762562483549118,0.07762562483549118,0.001,0.9375555515289307,0.49759185314178467,0.49759185314178467
70,0.9779999852180481,0.06522807478904724,0.06522807478904724,0.001,0.9371111392974854,0.5016181468963623,0.5016181468963623
71,0.9760000109672546,0.07346058636903763,0.07346058636903763,0.001,0.9346666932106018,0.5073911547660828,0.5073911547660828
72,0.9760000109672546,0.07035911083221436,0.07035911083221436,0.0005,0.9348888993263245,0.5081602334976196,0.5081602334976196
73,0.9760000109672546,0.06562773138284683,0.06562773138284683,0.0005,0.9364444613456726,0.5096048712730408,0.5096048712730408
74,0.9760000109672546,0.06671126186847687,0.06671126186847687,0.0005,0.9377777576446533,0.5109975337982178,0.5109975337982178
75,0.9779999852180481,0.06380149722099304,0.06380149722099304,0.0005,0.9384444355964661,0.5132871270179749,0.5132871270179749
76,0.9739999771118164,0.07280858606100082,0.07280858606100082,0.0005,0.9386666417121887,0.51429682970047,0.51429682970047
77,0.9779999852180481,0.05942250415682793,0.05942250415682793,0.0005,0.9395555257797241,0.5171486735343933,0.5171486735343933
78,0.9779999852180481,0.07301954925060272,0.07301954925060272,0.0005,0.9391111135482788,0.5199661254882812,0.5199661254882812
79,0.9779999852180481,0.06488575041294098,0.06488575041294098,0.0005,0.9382222294807434,0.5255487561225891,0.5255487561225891
80,0.9800000190734863,0.06089957058429718,0.06089957058429718,0.0005,0.9359999895095825,0.5320373773574829,0.5320373773574829
81,0.9739999771118164,0.0697936937212944,0.0697936937212944,0.0005,0.9357777833938599,0.5359800457954407,0.5359800457954407
82,0.9800000190734863,0.06610167771577835,0.06610167771577835,0.0005,0.9375555515289307,0.5368385910987854,0.5368385910987854
83,0.9800000190734863,0.06013147905468941,0.06013147905468941,0.0005,0.9388889074325562,0.5385552644729614,0.5385552644729614
84,0.9760000109672546,0.07392360270023346,0.07392360270023346,0.0005,0.9386666417121887,0.5421097278594971,0.5421097278594971
85,0.9739999771118164,0.06488225609064102,0.06488225609064102,0.0005,0.9391111135482788,0.5450551509857178,0.5450551509857178
86,0.9739999771118164,0.0657050684094429,0.0657050684094429,0.0005,0.9377777576446533,0.5468101501464844,0.5468101501464844
87,0.9819999933242798,0.05824309587478638,0.05824309587478638,0.0005,0.9355555772781372,0.5503429174423218,0.5503429174423218
88,0.9819999933242798,0.04950278624892235,0.04950278624892235,0.0005,0.9353333115577698,0.5521257519721985,0.5521257519721985
89,0.9760000109672546,0.05192473903298378,0.05192473903298378,0.0005,0.937333345413208,0.5510929226875305,0.5510929226875305
90,0.9760000109672546,0.06952586770057678,0.06952586770057678,0.0005,0.9386666417121887,0.5529702305793762,0.5529702305793762
91,0.9779999852180481,0.08015753328800201,0.08015753328800201,0.0005,0.9391111135482788,0.5544829368591309,0.5544829368591309
92,0.9800000190734863,0.05540936440229416,0.05540936440229416,0.0005,0.9382222294807434,0.5577182769775391,0.5577182769775391
93,0.9800000190734863,0.06755705177783966,0.06755705177783966,0.0005,0.9353333115577698,0.5625764727592468,0.5625764727592468
94,0.9819999933242798,0.05382826551795006,0.05382826551795006,0.0005,0.9353333115577698,0.5654541850090027,0.5654541850090027
95,0.9779999852180481,0.05652916431427002,0.05652916431427002,0.0005,0.9359999895095825,0.5688920021057129,0.5688920021057129
96,0.9779999852180481,0.0552842952311039,0.0552842952311039,0.0005,0.9380000233650208,0.571968138217926,0.571968138217926
97,0.9760000109672546,0.06236210837960243,0.06236210837960243,0.0005,0.9384444355964661,0.5765669941902161,0.5765669941902161
98,0.984000027179718,0.05842217803001404,0.05842217803001404,0.0005,0.9388889074325562,0.5811622142791748,0.5811622142791748
99,0.9800000190734863,0.05485443398356438,0.05485443398356438,0.0005,0.9384444355964661,0.5862248539924622,0.5862248539924622
100,0.9779999852180481,0.05758713558316231,0.05758713558316231,0.0005,0.9375555515289307,0.5917147397994995,0.5917147397994995
101,0.9779999852180481,0.0574641190469265,0.0574641190469265,0.0005,0.9380000233650208,0.5959882736206055,0.5959882736206055
102,0.9779999852180481,0.054634105414152145,0.054634105414152145,0.0005,0.9371111392974854,0.6001201272010803,0.6001201272010803
103,0.9819999933242798,0.062199387699365616,0.062199387699365616,0.0005,0.9368888735771179,0.6040036082267761,0.6040036082267761
104,0.9800000190734863,0.05140041932463646,0.05140041932463646,0.0005,0.9357777833938599,0.6082099676132202,0.6082099676132202
105,0.9779999852180481,0.057935167104005814,0.057935167104005814,0.0005,0.9371111392974854,0.6095927357673645,0.6095927357673645
106,0.9819999933242798,0.05444398894906044,0.05444398894906044,0.0005,0.9375555515289307,0.6137293577194214,0.6137293577194214
107,0.9800000190734863,0.0557028204202652,0.0557028204202652,0.0005,0.9386666417121887,0.6179355382919312,0.6179355382919312
108,0.9800000190734863,0.05243803560733795,0.05243803560733795,0.0005,0.9382222294807434,0.6233266592025757,0.6233266592025757
109,0.9779999852180481,0.06023586168885231,0.06023586168885231,0.0005,0.9382222294807434,0.6278120875358582,0.6278120875358582
110,0.9660000205039978,0.0668703094124794,0.0668703094124794,0.0005,0.9375555515289307,0.6274861693382263,0.6274861693382263
111,0.9739999771118164,0.062253449112176895,0.062253449112176895,0.0005,0.9371111392974854,0.6270077228546143,0.6270077228546143
112,0.9819999933242798,0.0564836747944355,0.0564836747944355,0.0005,0.9368888735771179,0.6273468732833862,0.6273468732833862
113,0.972000002861023,0.06421452015638351,0.06421452015638351,0.0005,0.9364444613456726,0.6282745599746704,0.6282745599746704
114,0.9779999852180481,0.05517600476741791,0.05517600476741791,0.0005,0.9348888993263245,0.6306288838386536,0.6306288838386536
115,0.9800000190734863,0.05712215602397919,0.05712215602397919,0.0005,0.9351111054420471,0.6324015855789185,0.6324015855789185
116,0.984000027179718,0.04551270231604576,0.04551270231604576,0.0005,0.9371111392974854,0.6331237554550171,0.6331237554550171
117,0.9760000109672546,0.05502166226506233,0.05502166226506233,0.0005,0.9371111392974854,0.6345417499542236,0.6345417499542236
118,0.9800000190734863,0.04899008199572563,0.04899008199572563,0.0005,0.9362221956253052,0.6403330564498901,0.6403330564498901
119,0.9800000190734863,0.04889390617609024,0.04889390617609024,0.0005,0.9368888735771179,0.6448637247085571,0.6448637247085571
120,0.9800000190734863,0.05805552750825882,0.05805552750825882,0.0005,0.9393333196640015,0.6467816233634949,0.6467816233634949
121,0.9779999852180481,0.059813156723976135,0.059813156723976135,0.0005,0.9393333196640015,0.6511377692222595,0.6511377692222595
122,0.9760000109672546,0.06218356266617775,0.06218356266617775,0.00025,0.9386666417121887,0.652533233165741,0.652533233165741
123,0.9819999933242798,0.05034210532903671,0.05034210532903671,0.00025,0.9364444613456726,0.6555412411689758,0.6555412411689758
124,0.9700000286102295,0.06277158856391907,0.06277158856391907,0.00025,0.9357777833938599,0.6591445803642273,0.6591445803642273
125,0.984000027179718,0.05212114751338959,0.05212114751338959,0.00025,0.9359999895095825,0.6600610017776489,0.6600610017776489
126,0.9800000190734863,0.050561677664518356,0.050561677664518356,0.00025,0.9371111392974854,0.6611483097076416,0.6611483097076416
127,0.9860000014305115,0.038605839014053345,0.038605839014053345,0.00025,0.9382222294807434,0.6634894609451294,0.6634894609451294
128,0.972000002861023,0.0613485611975193,0.0613485611975193,0.00025,0.9384444355964661,0.667667031288147,0.667667031288147
129,0.9819999933242798,0.04831817373633385,0.04831817373633385,0.00025,0.9386666417121887,0.671466052532196,0.671466052532196
130,0.9800000190734863,0.061294011771678925,0.061294011771678925,0.00025,0.9359999895095825,0.6755427718162537,0.6755427718162537
131,0.9739999771118164,0.058010414242744446,0.058010414242744446,0.00025,0.9315555691719055,0.683050811290741,0.683050811290741
132,0.9819999933242798,0.04925293102860451,0.04925293102860451,0.00025,0.9288889169692993,0.6888744235038757,0.6888744235038757
133,0.9800000190734863,0.06645065546035767,0.06645065546035767,0.00025,0.9328888654708862,0.6869961619377136,0.6869961619377136
134,0.9760000109672546,0.05335764214396477,0.05335764214396477,0.00025,0.9355555772781372,0.6861100792884827,0.6861100792884827
135,0.9800000190734863,0.04973927140235901,0.04973927140235901,0.00025,0.9382222294807434,0.687347948551178,0.687347948551178
136,0.9760000109672546,0.0596456304192543,0.0596456304192543,0.00025,0.9382222294807434,0.6884489059448242,0.6884489059448242
137,0.9760000109672546,0.060770805925130844,0.060770805925130844,0.00025,0.9377777576446533,0.6890630722045898,0.6890630722045898
138,0.9739999771118164,0.061006177216768265,0.061006177216768265,0.00025,0.9359999895095825,0.6895614266395569,0.6895614266395569
139,0.9779999852180481,0.0515500083565712,0.0515500083565712,0.00025,0.9362221956253052,0.6885207891464233,0.6885207891464233
140,0.9739999771118164,0.06329967826604843,0.06329967826604843,0.00025,0.9362221956253052,0.6864026188850403,0.6864026188850403
141,0.984000027179718,0.04085888713598251,0.04085888713598251,0.00025,0.9380000233650208,0.6838017106056213,0.6838017106056213
142,0.9819999933242798,0.045907776802778244,0.045907776802778244,0.00025,0.9384444355964661,0.683060348033905,0.683060348033905
143,0.9860000014305115,0.04003600776195526,0.04003600776195526,0.00025,0.9384444355964661,0.6830366849899292,0.6830366849899292
144,0.9800000190734863,0.05094217509031296,0.05094217509031296,0.00025,0.9366666674613953,0.6851309537887573,0.6851309537887573
145,0.9779999852180481,0.05937643349170685,0.05937643349170685,0.00025,0.9346666932106018,0.6901077032089233,0.6901077032089233
146,0.9860000014305115,0.0495629608631134,0.0495629608631134,0.00025,0.9326666593551636,0.6944898366928101,0.6944898366928101
147,0.9860000014305115,0.04372752830386162,0.04372752830386162,0.00025,0.9313333630561829,0.6985574960708618,0.6985574960708618
148,0.9800000190734863,0.04553839936852455,0.04553839936852455,0.00025,0.9340000152587891,0.6970552802085876,0.6970552802085876
149,0.9819999933242798,0.046188175678253174,0.046188175678253174,0.00025,0.9368888735771179,0.6953845024108887,0.6953845024108887
150,0.9860000014305115,0.041227277368307114,0.041227277368307114,0.00025,0.9388889074325562,0.6954671740531921,0.6954671740531921
151,0.9760000109672546,0.04603845626115799,0.04603845626115799,0.00025,0.9391111135482788,0.696448028087616,0.696448028087616
152,0.9739999771118164,0.05998101830482483,0.05998101830482483,0.00025,0.9393333196640015,0.6987462043762207,0.6987462043762207
153,0.9739999771118164,0.05865182727575302,0.05865182727575302,0.00025,0.9391111135482788,0.7009953260421753,0.7009953260421753
154,0.9819999933242798,0.05493823438882828,0.05493823438882828,0.00025,0.9368888735771179,0.7050291299819946,0.7050291299819946
155,0.9800000190734863,0.05164498835802078,0.05164498835802078,0.00025,0.9353333115577698,0.7084806561470032,0.7084806561470032
156,0.9739999771118164,0.07346713542938232,0.07346713542938232,0.00025,0.9346666932106018,0.7099128365516663,0.7099128365516663
157,0.9779999852180481,0.05142687261104584,0.05142687261104584,0.00025,0.9375555515289307,0.707449197769165,0.707449197769165
158,0.9779999852180481,0.05849200859665871,0.05849200859665871,0.00025,0.9386666417121887,0.7075926661491394,0.7075926661491394
159,0.984000027179718,0.04512541741132736,0.04512541741132736,0.00025,0.9386666417121887,0.7096312642097473,0.7096312642097473
160,0.9819999933242798,0.045885227620601654,0.045885227620601654,0.00025,0.9386666417121887,0.710625946521759,0.710625946521759
161,0.9779999852180481,0.05792025104165077,0.05792025104165077,0.00025,0.9357777833938599,0.711952805519104,0.711952805519104
162,0.9800000190734863,0.04490387439727783,0.04490387439727783,0.00025,0.9311110973358154,0.7179991602897644,0.7179991602897644
163,0.9779999852180481,0.04995260015130043,0.04995260015130043,0.00025,0.9273333549499512,0.72380530834198,0.72380530834198
164,0.9779999852180481,0.05921709164977074,0.05921709164977074,0.00025,0.9293333292007446,0.7210652828216553,0.7210652828216553
165,0.9739999771118164,0.04697123169898987,0.04697123169898987,0.00025,0.9364444613456726,0.7161000370979309,0.7161000370979309
166,0.9860000014305115,0.04121633991599083,0.04121633991599083,0.00025,0.9384444355964661,0.7179220914840698,0.7179220914840698
167,0.9800000190734863,0.05895228683948517,0.05895228683948517,0.00025,0.9386666417121887,0.7179908752441406,0.7179908752441406
168,0.9779999852180481,0.05665550380945206,0.05665550380945206,0.00025,0.937333345413208,0.7178734540939331,0.7178734540939331
169,0.9819999933242798,0.050976239144802094,0.050976239144802094,0.00025,0.9342222213745117,0.7199000716209412,0.7199000716209412
170,0.984000027179718,0.047475818544626236,0.047475818544626236,0.00025,0.9326666593551636,0.7237741947174072,0.7237741947174072
171,0.9819999933242798,0.050862547010183334,0.050862547010183334,0.00025,0.9317777752876282,0.725903332233429,0.725903332233429
172,0.9819999933242798,0.049248553812503815,0.049248553812503815,0.000125,0.9331111311912537,0.7253084778785706,0.7253084778785706
173,0.9819999933242798,0.048949357122182846,0.048949357122182846,0.000125,0.9342222213745117,0.7235194444656372,0.7235194444656372
174,0.9800000190734863,0.045871347188949585,0.045871347188949585,0.000125,0.9351111054420471,0.7223660945892334,0.7223660945892334
175,0.9819999933242798,0.05248631536960602,0.05248631536960602,0.000125,0.9368888735771179,0.7213378548622131,0.7213378548622131
176,0.984000027179718,0.04778895154595375,0.04778895154595375,0.000125,0.9377777576446533,0.7216192483901978,0.7216192483901978
177,0.9860000014305115,0.04402739927172661,0.04402739927172661,0.000125,0.9375555515289307,0.7223241925239563,0.7223241925239563
178,0.984000027179718,0.05323927104473114,0.05323927104473114,0.000125,0.9380000233650208,0.723204493522644,0.723204493522644
179,0.9819999933242798,0.058593880385160446,0.058593880385160446,0.000125,0.9371111392974854,0.7239482998847961,0.7239482998847961
180,0.9800000190734863,0.04808252304792404,0.04808252304792404,0.000125,0.9353333115577698,0.7253542542457581,0.7253542542457581
181,0.9879999756813049,0.03955291211605072,0.03955291211605072,0.000125,0.9340000152587891,0.7275556921958923,0.7275556921958923
182,0.984000027179718,0.04468794912099838,0.04468794912099838,0.000125,0.9308888912200928,0.7307829856872559,0.7307829856872559
183,0.9879999756813049,0.04092782363295555,0.04092782363295555,0.000125,0.9297778010368347,0.7334420680999756,0.7334420680999756
184,0.9900000095367432,0.041307706385850906,0.041307706385850906,0.000125,0.9304444193840027,0.7322989702224731,0.7322989702224731
185,0.984000027179718,0.04240943491458893,0.04240943491458893,0.000125,0.9319999814033508,0.7307785749435425,0.7307785749435425
186,0.9900000095367432,0.03632545471191406,0.03632545471191406,0.000125,0.9348888993263245,0.7291641235351562,0.7291641235351562
187,0.984000027179718,0.042320284992456436,0.042320284992456436,0.000125,0.9353333115577698,0.7285335659980774,0.7285335659980774
188,0.9779999852180481,0.06015565246343613,0.06015565246343613,0.000125,0.9357777833938599,0.7274895906448364,0.7274895906448364
189,0.9779999852180481,0.05174195021390915,0.05174195021390915,0.000125,0.9357777833938599,0.7262377142906189,0.7262377142906189
190,0.9779999852180481,0.058502111583948135,0.058502111583948135,0.000125,0.9353333115577698,0.7253496646881104,0.7253496646881104
191,0.9779999852180481,0.04369710385799408,0.04369710385799408,0.000125,0.9346666932106018,0.724689781665802,0.724689781665802
192,0.984000027179718,0.04389314353466034,0.04389314353466034,0.000125,0.9344444274902344,0.7246603965759277,0.7246603965759277
193,0.9860000014305115,0.040259949862957,0.040259949862957,0.000125,0.9344444274902344,0.7244227528572083,0.7244227528572083
194,0.9860000014305115,0.04660860076546669,0.04660860076546669,0.000125,0.9344444274902344,0.7243750095367432,0.7243750095367432
195,0.9779999852180481,0.05117212235927582,0.05117212235927582,0.000125,0.9342222213745117,0.7248106598854065,0.7248106598854065
196,0.984000027179718,0.041496045887470245,0.041496045887470245,0.000125,0.9340000152587891,0.7251715064048767,0.7251715064048767
197,0.9860000014305115,0.043164774775505066,0.043164774775505066,0.000125,0.9342222213745117,0.7253358960151672,0.7253358960151672
198,0.9779999852180481,0.047844402492046356,0.047844402492046356,0.000125,0.9340000152587891,0.7262661457061768,0.7262661457061768
199,0.9879999756813049,0.039322417229413986,0.039322417229413986,0.000125,0.9342222213745117,0.7268842458724976,0.7268842458724976
200,0.9819999933242798,0.0425281822681427,0.0425281822681427,0.000125,0.9348888993263245,0.7271804213523865,0.7271804213523865
201,0.9800000190734863,0.04549043998122215,0.04549043998122215,0.000125,0.9355555772781372,0.7279740571975708,0.7279740571975708
202,0.9779999852180481,0.048408620059490204,0.048408620059490204,0.000125,0.9353333115577698,0.7294743657112122,0.7294743657112122
203,0.984000027179718,0.044397398829460144,0.044397398829460144,0.000125,0.9355555772781372,0.7310613989830017,0.7310613989830017
204,0.9800000190734863,0.044543273746967316,0.044543273746967316,0.000125,0.9348888993263245,0.7326385378837585,0.7326385378837585
205,0.9860000014305115,0.0437157116830349,0.0437157116830349,0.000125,0.9348888993263245,0.7340202927589417,0.7340202927589417
206,0.9860000014305115,0.031776685267686844,0.031776685267686844,0.000125,0.9344444274902344,0.7353086471557617,0.7353086471557617
207,0.9779999852180481,0.05061927065253258,0.05061927065253258,0.000125,0.9340000152587891,0.7355905771255493,0.7355905771255493
208,0.9800000190734863,0.03977537155151367,0.03977537155151367,0.000125,0.9342222213745117,0.7363212704658508,0.7363212704658508
209,0.9819999933242798,0.05016274377703667,0.05016274377703667,0.000125,0.9342222213745117,0.7369619011878967,0.7369619011878967
210,0.984000027179718,0.04364835470914841,0.04364835470914841,0.000125,0.9342222213745117,0.7377474904060364,0.7377474904060364
211,0.984000027179718,0.05157337710261345,0.05157337710261345,0.000125,0.9340000152587891,0.737257719039917,0.737257719039917
212,0.9819999933242798,0.03982982784509659,0.03982982784509659,0.000125,0.9342222213745117,0.7368825078010559,0.7368825078010559
213,0.984000027179718,0.03339048847556114,0.03339048847556114,0.000125,0.9337777495384216,0.7370624542236328,0.7370624542236328
214,0.9779999852180481,0.04923152178525925,0.04923152178525925,0.000125,0.9348888993263245,0.7369113564491272,0.7369113564491272
215,0.9819999933242798,0.04367746412754059,0.04367746412754059,0.000125,0.9348888993263245,0.7370907664299011,0.7370907664299011
216,0.9819999933242798,0.03969815745949745,0.03969815745949745,0.000125,0.9351111054420471,0.7375284433364868,0.7375284433364868
217,0.9760000109672546,0.04238831251859665,0.04238831251859665,0.000125,0.9342222213745117,0.7382022738456726,0.7382022738456726
218,0.984000027179718,0.044730670750141144,0.044730670750141144,0.000125,0.933555543422699,0.7393493056297302,0.7393493056297302
219,0.9819999933242798,0.044977717101573944,0.044977717101573944,0.000125,0.933555543422699,0.7412996292114258,0.7412996292114258
220,0.984000027179718,0.050605230033397675,0.050605230033397675,0.000125,0.9322222471237183,0.742292582988739,0.742292582988739
221,0.9860000014305115,0.04399238899350166,0.04399238899350166,0.000125,0.9324444532394409,0.7426217794418335,0.7426217794418335
222,0.984000027179718,0.041365258395671844,0.041365258395671844,1e-04,0.9328888654708862,0.7425254583358765,0.7425254583358765
223,0.9819999933242798,0.03994258865714073,0.03994258865714073,1e-04,0.9333333373069763,0.7424879670143127,0.7424879670143127
224,0.9860000014305115,0.039297375828027725,0.039297375828027725,1e-04,0.9340000152587891,0.7430065274238586,0.7430065274238586
225,0.9800000190734863,0.04219510778784752,0.04219510778784752,1e-04,0.9342222213745117,0.7440714240074158,0.7440714240074158
226,0.9800000190734863,0.04599366709589958,0.04599366709589958,1e-04,0.9342222213745117,0.7455326318740845,0.7455326318740845
227,0.984000027179718,0.044274888932704926,0.044274888932704926,1e-04,0.9348888993263245,0.7473639845848083,0.7473639845848083
228,0.9860000014305115,0.040863338857889175,0.040863338857889175,1e-04,0.9344444274902344,0.7493122220039368,0.7493122220039368
229,0.9860000014305115,0.054868780076503754,0.054868780076503754,1e-04,0.9344444274902344,0.7511850595474243,0.7511850595474243
230,0.9760000109672546,0.046972814947366714,0.046972814947366714,1e-04,0.9340000152587891,0.7530425190925598,0.7530425190925598
231,0.9800000190734863,0.047421645373106,0.047421645373106,1e-04,0.9340000152587891,0.7545533180236816,0.7545533180236816
232,0.9879999756813049,0.04009581729769707,0.04009581729769707,1e-04,0.9344444274902344,0.755405604839325,0.755405604839325
233,0.9819999933242798,0.043438978493213654,0.043438978493213654,1e-04,0.9342222213745117,0.7567439079284668,0.7567439079284668
234,0.9800000190734863,0.05133219435811043,0.05133219435811043,1e-04,0.9348888993263245,0.7565924525260925,0.7565924525260925
235,0.9879999756813049,0.0334458202123642,0.0334458202123642,1e-04,0.9355555772781372,0.7566536068916321,0.7566536068916321
236,0.9860000014305115,0.04154852405190468,0.04154852405190468,1e-04,0.9357777833938599,0.7572924494743347,0.7572924494743347
237,0.9879999756813049,0.04855853691697121,0.04855853691697121,1e-04,0.9359999895095825,0.7583513259887695,0.7583513259887695
238,0.984000027179718,0.04886345937848091,0.04886345937848091,1e-04,0.9355555772781372,0.7599918842315674,0.7599918842315674
239,0.9819999933242798,0.041772354394197464,0.041772354394197464,1e-04,0.9351111054420471,0.7618507742881775,0.7618507742881775
240,0.9819999933242798,0.05026751011610031,0.05026751011610031,1e-04,0.9337777495384216,0.7635220289230347,0.7635220289230347
241,0.9819999933242798,0.04542143642902374,0.04542143642902374,1e-04,0.9331111311912537,0.7636185884475708,0.7636185884475708
242,0.9919999837875366,0.03882214054465294,0.03882214054465294,1e-04,0.9328888654708862,0.7638170719146729,0.7638170719146729
243,0.9760000109672546,0.046729832887649536,0.046729832887649536,1e-04,0.9326666593551636,0.7640420198440552,0.7640420198440552
244,0.984000027179718,0.045167528092861176,0.045167528092861176,1e-04,0.9322222471237183,0.764360249042511,0.764360249042511
245,0.9860000014305115,0.039608027786016464,0.039608027786016464,1e-04,0.9319999814033508,0.7644672989845276,0.7644672989845276
246,0.9779999852180481,0.05770297348499298,0.05770297348499298,1e-04,0.9317777752876282,0.7642748951911926,0.7642748951911926
247,0.9819999933242798,0.039741870015859604,0.039741870015859604,1e-04,0.9331111311912537,0.7640490531921387,0.7640490531921387
248,0.9819999933242798,0.03970238193869591,0.03970238193869591,1e-04,0.9333333373069763,0.7645203471183777,0.7645203471183777
249,0.9860000014305115,0.04175722599029541,0.04175722599029541,1e-04,0.9324444532394409,0.7652287483215332,0.7652287483215332
250,0.9700000286102295,0.0644972175359726,0.0644972175359726,1e-04,0.9319999814033508,0.7659668326377869,0.7659668326377869
251,0.9800000190734863,0.03944631665945053,0.03944631665945053,1e-04,0.9322222471237183,0.7665311098098755,0.7665311098098755
252,0.9800000190734863,0.04379983991384506,0.04379983991384506,1e-04,0.9324444532394409,0.7666951417922974,0.7666951417922974
253,0.9860000014305115,0.035374682396650314,0.035374682396650314,1e-04,0.9326666593551636,0.7666294574737549,0.7666294574737549
254,0.9819999933242798,0.04863167926669121,0.04863167926669121,1e-04,0.9344444274902344,0.7665889859199524,0.7665889859199524
255,0.9860000014305115,0.03675704076886177,0.03675704076886177,1e-04,0.9344444274902344,0.7670333385467529,0.7670333385467529
256,0.9879999756813049,0.04185185208916664,0.04185185208916664,1e-04,0.9353333115577698,0.7671539783477783,0.7671539783477783
257,0.9900000095367432,0.03493256866931915,0.03493256866931915,1e-04,0.9355555772781372,0.7672789096832275,0.7672789096832275
258,0.9819999933242798,0.036579638719558716,0.036579638719558716,1e-04,0.9351111054420471,0.767941415309906,0.767941415309906
259,0.984000027179718,0.04051638022065163,0.04051638022065163,1e-04,0.9348888993263245,0.768454909324646,0.768454909324646
260,0.9860000014305115,0.04162149503827095,0.04162149503827095,1e-04,0.9355555772781372,0.7687739729881287,0.7687739729881287
261,0.9819999933242798,0.043289460241794586,0.043289460241794586,1e-04,0.9355555772781372,0.7693881988525391,0.7693881988525391
262,0.984000027179718,0.05046709626913071,0.05046709626913071,1e-04,0.9355555772781372,0.7698336243629456,0.7698336243629456
263,0.9800000190734863,0.051102060824632645,0.051102060824632645,1e-04,0.9355555772781372,0.7708385586738586,0.7708385586738586
264,0.9819999933242798,0.04537810757756233,0.04537810757756233,1e-04,0.9351111054420471,0.7720128893852234,0.7720128893852234
265,0.984000027179718,0.04852292314171791,0.04852292314171791,1e-04,0.9342222213745117,0.7733757495880127,0.7733757495880127
266,0.9860000014305115,0.04163624718785286,0.04163624718785286,1e-04,0.9337777495384216,0.7743521332740784,0.7743521332740784
267,0.9800000190734863,0.038675375282764435,0.038675375282764435,1e-04,0.933555543422699,0.7749711871147156,0.7749711871147156
268,0.9819999933242798,0.04916354641318321,0.04916354641318321,1e-04,0.933555543422699,0.7755640149116516,0.7755640149116516
269,0.9860000014305115,0.05178843066096306,0.05178843066096306,1e-04,0.9333333373069763,0.776108980178833,0.776108980178833
270,0.9860000014305115,0.03754173964262009,0.03754173964262009,1e-04,0.9328888654708862,0.776726245880127,0.776726245880127
271,0.984000027179718,0.04867597296833992,0.04867597296833992,1e-04,0.9331111311912537,0.7769356369972229,0.7769356369972229
272,0.9819999933242798,0.04980337619781494,0.04980337619781494,1e-04,0.9326666593551636,0.777582049369812,0.777582049369812
273,0.9800000190734863,0.05226757004857063,0.05226757004857063,1e-04,0.9326666593551636,0.7788707613945007,0.7788707613945007
274,0.984000027179718,0.04090605676174164,0.04090605676174164,1e-04,0.9311110973358154,0.7809404134750366,0.7809404134750366
275,0.9779999852180481,0.05236561968922615,0.05236561968922615,1e-04,0.9304444193840027,0.7825514674186707,0.7825514674186707
276,0.9860000014305115,0.03746898099780083,0.03746898099780083,1e-04,0.9304444193840027,0.7840373516082764,0.7840373516082764
277,0.9819999933242798,0.049998488277196884,0.049998488277196884,1e-04,0.93022221326828,0.7855051755905151,0.7855051755905151
278,0.9879999756813049,0.03836518153548241,0.03836518153548241,1e-04,0.9297778010368347,0.7869835495948792,0.7869835495948792
279,0.9860000014305115,0.03987438231706619,0.03987438231706619,1e-04,0.9300000071525574,0.7877985835075378,0.7877985835075378
280,0.9860000014305115,0.04052594304084778,0.04052594304084778,1e-04,0.93022221326828,0.788011908531189,0.788011908531189
281,0.984000027179718,0.03753450885415077,0.03753450885415077,1e-04,0.9313333630561829,0.7877733111381531,0.7877733111381531
282,0.9860000014305115,0.04356427118182182,0.04356427118182182,1e-04,0.9324444532394409,0.7873863577842712,0.7873863577842712
283,0.9860000014305115,0.04037553817033768,0.04037553817033768,1e-04,0.9333333373069763,0.7876320481300354,0.7876320481300354
284,0.9819999933242798,0.042105015367269516,0.042105015367269516,1e-04,0.9340000152587891,0.788217306137085,0.788217306137085
285,0.9800000190734863,0.03548538684844971,0.03548538684844971,1e-04,0.9340000152587891,0.7892582416534424,0.7892582416534424
286,0.9860000014305115,0.03874942287802696,0.03874942287802696,1e-04,0.9331111311912537,0.7905791997909546,0.7905791997909546
287,0.9800000190734863,0.03918684273958206,0.03918684273958206,1e-04,0.9326666593551636,0.7921035289764404,0.7921035289764404
288,0.9900000095367432,0.032469041645526886,0.032469041645526886,1e-04,0.9322222471237183,0.7938828468322754,0.7938828468322754
289,0.9819999933242798,0.04406288266181946,0.04406288266181946,1e-04,0.9315555691719055,0.7960412502288818,0.7960412502288818
290,0.9879999756813049,0.038659434765577316,0.038659434765577316,1e-04,0.9311110973358154,0.7980543971061707,0.7980543971061707
291,0.9879999756813049,0.04028730466961861,0.04028730466961861,1e-04,0.9315555691719055,0.7983754277229309,0.7983754277229309
292,0.984000027179718,0.03527946025133133,0.03527946025133133,1e-04,0.9324444532394409,0.7988505959510803,0.7988505959510803
293,0.9800000190734863,0.04693450778722763,0.04693450778722763,1e-04,0.9326666593551636,0.7987660765647888,0.7987660765647888
294,0.9860000014305115,0.042396534234285355,0.042396534234285355,1e-04,0.9331111311912537,0.7994982004165649,0.7994982004165649
295,0.9900000095367432,0.03849991410970688,0.03849991410970688,1e-04,0.9331111311912537,0.8002514243125916,0.8002514243125916
296,0.9900000095367432,0.03714652732014656,0.03714652732014656,1e-04,0.9331111311912537,0.8015899658203125,0.8015899658203125
297,0.9900000095367432,0.03107210248708725,0.03107210248708725,1e-04,0.9324444532394409,0.8032715916633606,0.8032715916633606
298,0.9819999933242798,0.046567514538764954,0.046567514538764954,1e-04,0.9317777752876282,0.8052124381065369,0.8052124381065369
299,0.9860000014305115,0.036936961114406586,0.036936961114406586,1e-04,0.9313333630561829,0.8065029382705688,0.8065029382705688
300,0.984000027179718,0.04255400225520134,0.04255400225520134,1e-04,0.9297778010368347,0.8085746765136719,0.8085746765136719
301,0.9860000014305115,0.039220843464136124,0.039220843464136124,1e-04,0.9295555353164673,0.8094470500946045,0.8094470500946045
302,0.984000027179718,0.03780311346054077,0.03780311346054077,1e-04,0.93022221326828,0.8096150755882263,0.8096150755882263
303,0.9900000095367432,0.03339711204171181,0.03339711204171181,1e-04,0.9308888912200928,0.8100751638412476,0.8100751638412476
304,0.9860000014305115,0.03824373707175255,0.03824373707175255,1e-04,0.9315555691719055,0.8105942010879517,0.8105942010879517
305,0.9800000190734863,0.05205173417925835,0.05205173417925835,1e-04,0.9322222471237183,0.8107612729072571,0.8107612729072571
306,0.9819999933242798,0.04287790134549141,0.04287790134549141,1e-04,0.9324444532394409,0.8114362955093384,0.8114362955093384
307,0.9879999756813049,0.03425203636288643,0.03425203636288643,1e-04,0.9324444532394409,0.8115744590759277,0.8115744590759277
308,0.9819999933242798,0.044823892414569855,0.044823892414569855,1e-04,0.9326666593551636,0.8116335272789001,0.8116335272789001
309,0.9860000014305115,0.04398849233984947,0.04398849233984947,1e-04,0.933555543422699,0.8114878535270691,0.8114878535270691
310,0.9900000095367432,0.0356675423681736,0.0356675423681736,1e-04,0.9340000152587891,0.8116341233253479,0.8116341233253479
311,0.9819999933242798,0.043092869222164154,0.043092869222164154,1e-04,0.9326666593551636,0.8125722408294678,0.8125722408294678
312,0.984000027179718,0.03639773651957512,0.03639773651957512,1e-04,0.9322222471237183,0.8145803213119507,0.8145803213119507
313,0.9879999756813049,0.03807736933231354,0.03807736933231354,1e-04,0.9322222471237183,0.816411018371582,0.816411018371582
314,0.9819999933242798,0.04025290533900261,0.04025290533900261,1e-04,0.9322222471237183,0.8175098299980164,0.8175098299980164
315,0.984000027179718,0.03598242253065109,0.03598242253065109,1e-04,0.9306666851043701,0.8207982182502747,0.8207982182502747
316,0.984000027179718,0.04670237749814987,0.04670237749814987,1e-04,0.9304444193840027,0.8234956860542297,0.8234956860542297
317,0.9860000014305115,0.03692982718348503,0.03692982718348503,1e-04,0.9304444193840027,0.825585663318634,0.825585663318634
318,0.9900000095367432,0.03779901936650276,0.03779901936650276,1e-04,0.9315555691719055,0.826042652130127,0.826042652130127
319,0.9879999756813049,0.039207711815834045,0.039207711815834045,1e-04,0.933555543422699,0.8261004686355591,0.8261004686355591
320,0.9879999756813049,0.038406454026699066,0.038406454026699066,1e-04,0.9344444274902344,0.8267101645469666,0.8267101645469666
321,0.9860000014305115,0.034807316958904266,0.034807316958904266,1e-04,0.9353333115577698,0.8280538320541382,0.8280538320541382
322,0.9900000095367432,0.03577333688735962,0.03577333688735962,1e-04,0.9357777833938599,0.8290470838546753,0.8290470838546753
323,0.9860000014305115,0.041044533252716064,0.041044533252716064,1e-04,0.9357777833938599,0.8295780420303345,0.8295780420303345
324,0.9860000014305115,0.03270377218723297,0.03270377218723297,1e-04,0.9357777833938599,0.8305366039276123,0.8305366039276123
325,0.9860000014305115,0.047707535326480865,0.047707535326480865,1e-04,0.9342222213745117,0.83100825548172,0.83100825548172
326,0.9760000109672546,0.05244716629385948,0.05244716629385948,1e-04,0.9331111311912537,0.8317015767097473,0.8317015767097473
327,0.9879999756813049,0.03829528018832207,0.03829528018832207,1e-04,0.9317777752876282,0.8322862982749939,0.8322862982749939
328,0.9940000176429749,0.0245065875351429,0.0245065875351429,1e-04,0.9313333630561829,0.8328607082366943,0.8328607082366943
329,0.9819999933242798,0.04095758870244026,0.04095758870244026,1e-04,0.9306666851043701,0.8350674510002136,0.8350674510002136
330,0.9800000190734863,0.05690721422433853,0.05690721422433853,1e-04,0.9304444193840027,0.8365976810455322,0.8365976810455322
331,0.9819999933242798,0.04466748610138893,0.04466748610138893,1e-04,0.9300000071525574,0.8386217951774597,0.8386217951774597
332,0.9800000190734863,0.04414411634206772,0.04414411634206772,1e-04,0.9297778010368347,0.8404362201690674,0.8404362201690674
333,0.984000027179718,0.03169260174036026,0.03169260174036026,1e-04,0.9304444193840027,0.8403546810150146,0.8403546810150146
334,0.9919999837875366,0.029387766495347023,0.029387766495347023,1e-04,0.9311110973358154,0.8402236700057983,0.8402236700057983
335,0.9919999837875366,0.030596306547522545,0.030596306547522545,1e-04,0.9322222471237183,0.8406040668487549,0.8406040668487549
336,0.9879999756813049,0.03860413655638695,0.03860413655638695,1e-04,0.9328888654708862,0.8410763144493103,0.8410763144493103
337,0.984000027179718,0.040506843477487564,0.040506843477487564,1e-04,0.9337777495384216,0.8416554927825928,0.8416554927825928
338,0.9860000014305115,0.03786003217101097,0.03786003217101097,1e-04,0.933555543422699,0.842261552810669,0.842261552810669
339,0.9860000014305115,0.03499675542116165,0.03499675542116165,1e-04,0.9328888654708862,0.843212366104126,0.843212366104126
340,0.9860000014305115,0.042539630085229874,0.042539630085229874,1e-04,0.9313333630561829,0.8445610404014587,0.8445610404014587
341,0.984000027179718,0.041121628135442734,0.041121628135442734,1e-04,0.9308888912200928,0.8458289504051208,0.8458289504051208
342,0.9879999756813049,0.03481009975075722,0.03481009975075722,1e-04,0.93022221326828,0.8477078676223755,0.8477078676223755
343,0.9779999852180481,0.035426750779151917,0.035426750779151917,1e-04,0.93022221326828,0.8488127589225769,0.8488127589225769
344,0.9879999756813049,0.03757995739579201,0.03757995739579201,1e-04,0.9286666512489319,0.8506487011909485,0.8506487011909485
345,0.9800000190734863,0.040461357682943344,0.040461357682943344,1e-04,0.9277777671813965,0.8523555994033813,0.8523555994033813
346,0.9919999837875366,0.031219951808452606,0.031219951808452606,1e-04,0.9284444451332092,0.8530203700065613,0.8530203700065613
347,0.9879999756813049,0.03484610840678215,0.03484610840678215,1e-04,0.9288889169692993,0.8534039855003357,0.8534039855003357
348,0.984000027179718,0.040734224021434784,0.040734224021434784,1e-04,0.9300000071525574,0.8531047105789185,0.8531047105789185
349,0.9919999837875366,0.031700655817985535,0.031700655817985535,1e-04,0.9322222471237183,0.8521443009376526,0.8521443009376526
350,0.9860000014305115,0.03701235353946686,0.03701235353946686,1e-04,0.9344444274902344,0.8515664935112,0.8515664935112
351,0.9900000095367432,0.03574349731206894,0.03574349731206894,1e-04,0.9344444274902344,0.8518083095550537,0.8518083095550537
352,0.9800000190734863,0.044838741421699524,0.044838741421699524,1e-04,0.9346666932106018,0.8530147671699524,0.8530147671699524
353,0.984000027179718,0.037304144352674484,0.037304144352674484,1e-04,0.9340000152587891,0.8543692231178284,0.8543692231178284
354,0.984000027179718,0.049141157418489456,0.049141157418489456,1e-04,0.9317777752876282,0.8562847375869751,0.8562847375869751
355,0.9779999852180481,0.04656472057104111,0.04656472057104111,1e-04,0.9286666512489319,0.8602210283279419,0.8602210283279419
356,0.9879999756813049,0.031609226018190384,0.031609226018190384,1e-04,0.9255555272102356,0.8649837970733643,0.8649837970733643
357,0.9860000014305115,0.03999333828687668,0.03999333828687668,1e-04,0.9251111149787903,0.8659310936927795,0.8659310936927795
358,0.9739999771118164,0.052713192999362946,0.052713192999362946,1e-04,0.9288889169692993,0.8608254790306091,0.8608254790306091
359,0.984000027179718,0.04024229571223259,0.04024229571223259,1e-04,0.9322222471237183,0.8563849925994873,0.8563849925994873
360,0.9900000095367432,0.03705275058746338,0.03705275058746338,1e-04,0.9337777495384216,0.8546731472015381,0.8546731472015381
361,0.984000027179718,0.040612492710351944,0.040612492710351944,1e-04,0.9348888993263245,0.8542296290397644,0.8542296290397644
362,0.984000027179718,0.0427904948592186,0.0427904948592186,1e-04,0.9348888993263245,0.8543846011161804,0.8543846011161804
363,0.984000027179718,0.03329189866781235,0.03329189866781235,1e-04,0.9346666932106018,0.8546823859214783,0.8546823859214783
364,0.9879999756813049,0.03505544364452362,0.03505544364452362,1e-04,0.9342222213745117,0.8555329442024231,0.8555329442024231
365,0.9879999756813049,0.03645068779587746,0.03645068779587746,1e-04,0.9311110973358154,0.8572919964790344,0.8572919964790344
366,0.9879999756813049,0.03248117119073868,0.03248117119073868,1e-04,0.9279999732971191,0.8608443737030029,0.8608443737030029
367,0.9879999756813049,0.03628401830792427,0.03628401830792427,1e-04,0.9264444708824158,0.8653057813644409,0.8653057813644409
368,0.984000027179718,0.036901675164699554,0.036901675164699554,1e-04,0.9262222051620483,0.8673949837684631,0.8673949837684631
369,0.984000027179718,0.04049509018659592,0.04049509018659592,1e-04,0.9262222051620483,0.8666465282440186,0.8666465282440186
370,0.9860000014305115,0.03314260393381119,0.03314260393381119,1e-04,0.9284444451332092,0.8636303544044495,0.8636303544044495
371,0.9860000014305115,0.04492393881082535,0.04492393881082535,1e-04,0.9315555691719055,0.8617977499961853,0.8617977499961853
372,0.9819999933242798,0.04343255236744881,0.04343255236744881,1e-04,0.9333333373069763,0.8616589903831482,0.8616589903831482
373,0.9800000190734863,0.03650953993201256,0.03650953993201256,1e-04,0.9340000152587891,0.8624882102012634,0.8624882102012634
374,0.9800000190734863,0.05214666575193405,0.05214666575193405,1e-04,0.9337777495384216,0.8636409640312195,0.8636409640312195
375,0.984000027179718,0.03635565936565399,0.03635565936565399,1e-04,0.9322222471237183,0.8650965690612793,0.8650965690612793
376,0.9800000190734863,0.037425696849823,0.037425696849823,1e-04,0.9311110973358154,0.8673129677772522,0.8673129677772522
377,0.9860000014305115,0.03702331334352493,0.03702331334352493,1e-04,0.9282222390174866,0.8695104122161865,0.8695104122161865
378,0.9879999756813049,0.03257003054022789,0.03257003054022789,1e-04,0.9275555610656738,0.8717137575149536,0.8717137575149536
379,0.9879999756813049,0.028475962579250336,0.028475962579250336,1e-04,0.9273333549499512,0.8733823895454407,0.8733823895454407
380,0.9879999756813049,0.030348272994160652,0.030348272994160652,1e-04,0.9264444708824158,0.8751381039619446,0.8751381039619446
381,0.9819999933242798,0.04055629298090935,0.04055629298090935,1e-04,0.9282222390174866,0.8751477003097534,0.8751477003097534
382,0.9860000014305115,0.03584259748458862,0.03584259748458862,1e-04,0.93022221326828,0.8735724091529846,0.8735724091529846
383,0.9919999837875366,0.034856945276260376,0.034856945276260376,1e-04,0.9324444532394409,0.8720300793647766,0.8720300793647766
384,0.984000027179718,0.044137682765722275,0.044137682765722275,1e-04,0.9337777495384216,0.8717982769012451,0.8717982769012451
385,0.9779999852180481,0.03970271348953247,0.03970271348953247,1e-04,0.9340000152587891,0.872389018535614,0.872389018535614
386,0.9879999756813049,0.03165774792432785,0.03165774792432785,1e-04,0.9340000152587891,0.8733441829681396,0.8733441829681396
387,0.984000027179718,0.04685685411095619,0.04685685411095619,1e-04,0.9337777495384216,0.87497878074646,0.87497878074646
388,0.984000027179718,0.034351896494627,0.034351896494627,1e-04,0.9315555691719055,0.8776340484619141,0.8776340484619141
389,0.9900000095367432,0.034572113305330276,0.034572113305330276,1e-04,0.9300000071525574,0.8810608983039856,0.8810608983039856
390,0.984000027179718,0.03485726937651634,0.03485726937651634,1e-04,0.9288889169692993,0.8827651143074036,0.8827651143074036
391,0.9879999756813049,0.03540992736816406,0.03540992736816406,1e-04,0.929111123085022,0.88215172290802,0.88215172290802
392,0.9779999852180481,0.0455501526594162,0.0455501526594162,1e-04,0.9297778010368347,0.8798375129699707,0.8798375129699707
393,0.9800000190734863,0.04032844305038452,0.04032844305038452,1e-04,0.9311110973358154,0.8771649599075317,0.8771649599075317
394,0.9800000190734863,0.037836190313100815,0.037836190313100815,1e-04,0.9333333373069763,0.874422013759613,0.874422013759613
395,0.9860000014305115,0.027270309627056122,0.027270309627056122,1e-04,0.933555543422699,0.8728218078613281,0.8728218078613281
396,0.9819999933242798,0.04659000784158707,0.04659000784158707,1e-04,0.9337777495384216,0.8718639612197876,0.8718639612197876
397,0.9900000095367432,0.029743419960141182,0.029743419960141182,1e-04,0.933555543422699,0.8716367483139038,0.8716367483139038
398,0.9800000190734863,0.04766711965203285,0.04766711965203285,1e-04,0.9331111311912537,0.8715575337409973,0.8715575337409973
399,0.9860000014305115,0.034133218228816986,0.034133218228816986,1e-04,0.9328888654708862,0.8720735907554626,0.8720735907554626
400,0.9819999933242798,0.03889409080147743,0.03889409080147743,1e-04,0.9324444532394409,0.8733830451965332,0.8733830451965332
401,0.984000027179718,0.03677945211529732,0.03677945211529732,1e-04,0.9304444193840027,0.8750241994857788,0.8750241994857788
402,0.984000027179718,0.04357217997312546,0.04357217997312546,1e-04,0.93022221326828,0.8763443827629089,0.8763443827629089
403,0.9879999756813049,0.028997760266065598,0.028997760266065598,1e-04,0.9295555353164673,0.8771727085113525,0.8771727085113525
404,0.9900000095367432,0.027590209618210793,0.027590209618210793,1e-04,0.9300000071525574,0.8771432638168335,0.8771432638168335
405,0.984000027179718,0.027894658967852592,0.027894658967852592,1e-04,0.93022221326828,0.8774057626724243,0.8774057626724243
406,0.984000027179718,0.03797377273440361,0.03797377273440361,1e-04,0.9319999814033508,0.8767789602279663,0.8767789602279663
407,0.9900000095367432,0.033940546214580536,0.033940546214580536,1e-04,0.9328888654708862,0.8763513565063477,0.8763513565063477
408,0.9900000095367432,0.03565507009625435,0.03565507009625435,1e-04,0.9328888654708862,0.8766627311706543,0.8766627311706543
409,0.9879999756813049,0.03550611436367035,0.03550611436367035,1e-04,0.9328888654708862,0.8774040937423706,0.8774040937423706
410,0.984000027179718,0.03537382930517197,0.03537382930517197,1e-04,0.9331111311912537,0.8788014650344849,0.8788014650344849
411,0.9919999837875366,0.026018138974905014,0.026018138974905014,1e-04,0.9315555691719055,0.8807611465454102,0.8807611465454102
412,0.9860000014305115,0.03029054030776024,0.03029054030776024,1e-04,0.9306666851043701,0.8829779028892517,0.8829779028892517
413,0.9860000014305115,0.03664197772741318,0.03664197772741318,1e-04,0.9311110973358154,0.8845254182815552,0.8845254182815552
414,0.9860000014305115,0.036917317658662796,0.036917317658662796,1e-04,0.9315555691719055,0.8846664428710938,0.8846664428710938
415,0.9919999837875366,0.03304548189043999,0.03304548189043999,1e-04,0.9313333630561829,0.8855859637260437,0.8855859637260437
416,0.9860000014305115,0.034623704850673676,0.034623704850673676,1e-04,0.9315555691719055,0.8872702717781067,0.8872702717781067
417,0.9860000014305115,0.03975934907793999,0.03975934907793999,1e-04,0.9319999814033508,0.8882251381874084,0.8882251381874084
418,0.9879999756813049,0.03360031917691231,0.03360031917691231,1e-04,0.9317777752876282,0.8893989324569702,0.8893989324569702
419,0.9860000014305115,0.035670023411512375,0.035670023411512375,1e-04,0.9311110973358154,0.8918891549110413,0.8918891549110413
420,0.984000027179718,0.03252435848116875,0.03252435848116875,1e-04,0.9308888912200928,0.8936553597450256,0.8936553597450256
421,0.9879999756813049,0.04215684160590172,0.04215684160590172,1e-04,0.9300000071525574,0.8956775069236755,0.8956775069236755
422,0.9900000095367432,0.031237199902534485,0.031237199902534485,1e-04,0.9300000071525574,0.8973400592803955,0.8973400592803955
423,0.9879999756813049,0.03491609916090965,0.03491609916090965,1e-04,0.9300000071525574,0.8984197378158569,0.8984197378158569
424,0.9919999837875366,0.027102883905172348,0.027102883905172348,1e-04,0.9304444193840027,0.8983306884765625,0.8983306884765625
425,0.9900000095367432,0.025492846965789795,0.025492846965789795,1e-04,0.9311110973358154,0.8982548117637634,0.8982548117637634
426,0.9879999756813049,0.0298033244907856,0.0298033244907856,1e-04,0.9322222471237183,0.8979484438896179,0.8979484438896179
427,0.9879999756813049,0.029817167669534683,0.029817167669534683,1e-04,0.9326666593551636,0.8977578282356262,0.8977578282356262
428,0.9900000095367432,0.020550386980175972,0.020550386980175972,1e-04,0.9333333373069763,0.8981906175613403,0.8981906175613403
429,0.984000027179718,0.03697261959314346,0.03697261959314346,1e-04,0.9333333373069763,0.899318516254425,0.899318516254425
430,0.9819999933242798,0.0393216498196125,0.0393216498196125,1e-04,0.9326666593551636,0.900782585144043,0.900782585144043
431,0.984000027179718,0.03633004426956177,0.03633004426956177,1e-04,0.9317777752876282,0.902609646320343,0.902609646320343
432,0.9879999756813049,0.04124641790986061,0.04124641790986061,1e-04,0.9317777752876282,0.9038354754447937,0.9038354754447937
433,0.9800000190734863,0.043355781584978104,0.043355781584978104,1e-04,0.93022221326828,0.9052636623382568,0.9052636623382568
434,0.9940000176429749,0.02771470695734024,0.02771470695734024,1e-04,0.9306666851043701,0.9032813310623169,0.9032813310623169
435,0.9879999756813049,0.030325748026371002,0.030325748026371002,1e-04,0.9317777752876282,0.9007790684700012,0.9007790684700012
436,0.9819999933242798,0.04961417242884636,0.04961417242884636,1e-04,0.9319999814033508,0.8993032574653625,0.8993032574653625
437,0.9800000190734863,0.05440206825733185,0.05440206825733185,1e-04,0.9319999814033508,0.898181676864624,0.898181676864624
438,0.9860000014305115,0.02709319069981575,0.02709319069981575,1e-04,0.9308888912200928,0.8979857563972473,0.8979857563972473
439,0.9879999756813049,0.03227642551064491,0.03227642551064491,1e-04,0.93022221326828,0.8986088037490845,0.8986088037490845
440,0.9860000014305115,0.028679268434643745,0.028679268434643745,1e-04,0.9295555353164673,0.8985314965248108,0.8985314965248108
441,0.9760000109672546,0.038830503821372986,0.038830503821372986,1e-04,0.9288889169692993,0.8998401761054993,0.8998401761054993
442,0.984000027179718,0.03568767383694649,0.03568767383694649,1e-04,0.9282222390174866,0.901280403137207,0.901280403137207
443,0.9959999918937683,0.020599443465471268,0.020599443465471268,1e-04,0.9279999732971191,0.9018005132675171,0.9018005132675171
444,0.9940000176429749,0.03202870115637779,0.03202870115637779,1e-04,0.9282222390174866,0.9017960429191589,0.9017960429191589
445,0.9940000176429749,0.02973039634525776,0.02973039634525776,1e-04,0.9295555353164673,0.9014212489128113,0.9014212489128113
446,0.9879999756813049,0.02106626145541668,0.02106626145541668,1e-04,0.9313333630561829,0.9009012579917908,0.9009012579917908
447,0.9879999756813049,0.03259113058447838,0.03259113058447838,1e-04,0.9315555691719055,0.9015576243400574,0.9015576243400574
448,0.9900000095367432,0.03874962776899338,0.03874962776899338,1e-04,0.9315555691719055,0.9033070802688599,0.9033070802688599
449,0.9879999756813049,0.041497427970170975,0.041497427970170975,1e-04,0.9315555691719055,0.9051491022109985,0.9051491022109985
450,0.9900000095367432,0.03082725964486599,0.03082725964486599,1e-04,0.9313333630561829,0.9076172709465027,0.9076172709465027
451,0.9819999933242798,0.041074760258197784,0.041074760258197784,1e-04,0.9311110973358154,0.9098319411277771,0.9098319411277771
452,0.9919999837875366,0.02812599390745163,0.02812599390745163,1e-04,0.9306666851043701,0.9120486378669739,0.9120486378669739
453,0.9879999756813049,0.03425129875540733,0.03425129875540733,1e-04,0.9279999732971191,0.9160324335098267,0.9160324335098267
454,0.984000027179718,0.03409992530941963,0.03409992530941963,1e-04,0.9273333549499512,0.9182385802268982,0.9182385802268982
455,0.9800000190734863,0.03918291628360748,0.03918291628360748,1e-04,0.9282222390174866,0.9189603924751282,0.9189603924751282
456,0.9900000095367432,0.030338309705257416,0.030338309705257416,1e-04,0.9297778010368347,0.9193581938743591,0.9193581938743591
457,0.9860000014305115,0.031834233552217484,0.031834233552217484,1e-04,0.9311110973358154,0.9197553992271423,0.9197553992271423
458,0.9900000095367432,0.03359610214829445,0.03359610214829445,1e-04,0.9315555691719055,0.9202064871788025,0.9202064871788025
459,0.984000027179718,0.026323115453124046,0.026323115453124046,1e-04,0.9317777752876282,0.9222966432571411,0.9222966432571411
460,0.9819999933242798,0.03468114882707596,0.03468114882707596,1e-04,0.9308888912200928,0.9254069924354553,0.9254069924354553
461,0.9900000095367432,0.024256639182567596,0.024256639182567596,1e-04,0.929111123085022,0.9289786219596863,0.9289786219596863
462,0.984000027179718,0.03125821426510811,0.03125821426510811,1e-04,0.9306666851043701,0.9287484884262085,0.9287484884262085
463,0.9900000095367432,0.03593141585588455,0.03593141585588455,1e-04,0.9322222471237183,0.9283367991447449,0.9283367991447449
464,0.9819999933242798,0.03674449026584625,0.03674449026584625,1e-04,0.9331111311912537,0.9286114573478699,0.9286114573478699
465,0.984000027179718,0.03143174573779106,0.03143174573779106,1e-04,0.9333333373069763,0.9294880628585815,0.9294880628585815
466,0.9900000095367432,0.029591374099254608,0.029591374099254608,1e-04,0.9333333373069763,0.9306495189666748,0.9306495189666748
467,0.984000027179718,0.03228086978197098,0.03228086978197098,1e-04,0.9328888654708862,0.9321933388710022,0.9321933388710022
468,0.9879999756813049,0.0377504862844944,0.0377504862844944,1e-04,0.9328888654708862,0.9343764185905457,0.9343764185905457
469,0.9879999756813049,0.03595195710659027,0.03595195710659027,1e-04,0.9315555691719055,0.9363477826118469,0.9363477826118469
470,0.9940000176429749,0.02227921225130558,0.02227921225130558,1e-04,0.9311110973358154,0.9368754625320435,0.9368754625320435
471,0.9819999933242798,0.03843345493078232,0.03843345493078232,1e-04,0.9304444193840027,0.9370191097259521,0.9370191097259521
472,0.9900000095367432,0.032795846462249756,0.032795846462249756,1e-04,0.929111123085022,0.937409520149231,0.937409520149231
473,0.984000027179718,0.05548858642578125,0.05548858642578125,1e-04,0.9304444193840027,0.9343215227127075,0.9343215227127075
474,0.9879999756813049,0.028319979086518288,0.028319979086518288,1e-04,0.93022221326828,0.9319975972175598,0.9319975972175598
475,0.9860000014305115,0.03630370274186134,0.03630370274186134,1e-04,0.9326666593551636,0.9289318323135376,0.9289318323135376
476,0.9900000095367432,0.023436328396201134,0.023436328396201134,1e-04,0.9333333373069763,0.9270998239517212,0.9270998239517212
477,0.9879999756813049,0.03354747220873833,0.03354747220873833,1e-04,0.9328888654708862,0.9273387789726257,0.9273387789726257
478,0.9879999756813049,0.028065847232937813,0.028065847232937813,1e-04,0.9328888654708862,0.9282851815223694,0.9282851815223694
479,0.9879999756813049,0.023564619943499565,0.023564619943499565,1e-04,0.9328888654708862,0.9292629361152649,0.9292629361152649
480,0.9860000014305115,0.03217924386262894,0.03217924386262894,1e-04,0.9324444532394409,0.9311358332633972,0.9311358332633972
481,0.9879999756813049,0.03233632817864418,0.03233632817864418,1e-04,0.9322222471237183,0.9333759546279907,0.9333759546279907
482,0.9900000095367432,0.02404014766216278,0.02404014766216278,1e-04,0.9317777752876282,0.9352429509162903,0.9352429509162903
483,0.9879999756813049,0.026083916425704956,0.026083916425704956,1e-04,0.9311110973358154,0.9375835657119751,0.9375835657119751
484,0.9900000095367432,0.03434179723262787,0.03434179723262787,1e-04,0.9297778010368347,0.9399163126945496,0.9399163126945496
485,0.9919999837875366,0.024999825283885002,0.024999825283885002,1e-04,0.929111123085022,0.9427021741867065,0.9427021741867065
486,0.9879999756813049,0.03423692286014557,0.03423692286014557,1e-04,0.9279999732971191,0.9451258778572083,0.9451258778572083
487,0.9879999756813049,0.0299228485673666,0.0299228485673666,1e-04,0.9279999732971191,0.9462210536003113,0.9462210536003113
488,0.9919999837875366,0.025141997262835503,0.025141997262835503,1e-04,0.9295555353164673,0.9448474645614624,0.9448474645614624
489,0.9900000095367432,0.02566654235124588,0.02566654235124588,1e-04,0.9324444532394409,0.9423432350158691,0.9423432350158691
490,0.9860000014305115,0.03284265846014023,0.03284265846014023,1e-04,0.9333333373069763,0.9413270354270935,0.9413270354270935
491,0.9879999756813049,0.031843509525060654,0.031843509525060654,1e-04,0.933555543422699,0.9412184357643127,0.9412184357643127
492,0.9819999933242798,0.03643328323960304,0.03643328323960304,1e-04,0.933555543422699,0.9408535957336426,0.9408535957336426
493,0.9879999756813049,0.029828112572431564,0.029828112572431564,1e-04,0.9333333373069763,0.9412811398506165,0.9412811398506165
494,0.9879999756813049,0.037087563425302505,0.037087563425302505,1e-04,0.933555543422699,0.9418819546699524,0.9418819546699524
495,0.9919999837875366,0.02764165960252285,0.02764165960252285,1e-04,0.9324444532394409,0.9426622986793518,0.9426622986793518
496,0.9900000095367432,0.02366568334400654,0.02366568334400654,1e-04,0.9326666593551636,0.9425363540649414,0.9425363540649414
497,0.9879999756813049,0.0395195446908474,0.0395195446908474,1e-04,0.9315555691719055,0.9434139728546143,0.9434139728546143
498,0.9879999756813049,0.030919598415493965,0.030919598415493965,1e-04,0.9297778010368347,0.9460033774375916,0.9460033774375916
499,0.9879999756813049,0.03617972135543823,0.03617972135543823,1e-04,0.9297778010368347,0.9463933110237122,0.9463933110237122
500,0.9900000095367432,0.03309950977563858,0.03309950977563858,1e-04,0.9297778010368347,0.947104275226593,0.947104275226593
501,0.9860000014305115,0.04532282426953316,0.04532282426953316,1e-04,0.9300000071525574,0.9468103051185608,0.9468103051185608
502,0.9919999837875366,0.031215142458677292,0.031215142458677292,1e-04,0.9313333630561829,0.9445137977600098,0.9445137977600098
503,0.9900000095367432,0.024777458980679512,0.024777458980679512,1e-04,0.9331111311912537,0.9432618021965027,0.9432618021965027
504,0.9900000095367432,0.029146084561944008,0.029146084561944008,1e-04,0.9340000152587891,0.9431690573692322,0.9431690573692322
505,0.9919999837875366,0.029973017051815987,0.029973017051815987,1e-04,0.933555543422699,0.9436109066009521,0.9436109066009521
506,0.9900000095367432,0.023274997249245644,0.023274997249245644,1e-04,0.9340000152587891,0.9444257616996765,0.9444257616996765
507,0.984000027179718,0.04499310255050659,0.04499310255050659,1e-04,0.9337777495384216,0.9451457262039185,0.9451457262039185
508,0.9879999756813049,0.02798362821340561,0.02798362821340561,1e-04,0.9333333373069763,0.9467979669570923,0.9467979669570923
509,0.9860000014305115,0.041749417781829834,0.041749417781829834,1e-04,0.9304444193840027,0.9517195224761963,0.9517195224761963
510,0.9900000095367432,0.022951729595661163,0.022951729595661163,1e-04,0.9262222051620483,0.9581987857818604,0.9581987857818604
511,1.0,0.016512716189026833,0.016512716189026833,1e-04,0.9244444370269775,0.9617666006088257,0.9617666006088257
512,0.9860000014305115,0.03035702183842659,0.03035702183842659,1e-04,0.9244444370269775,0.962929368019104,0.962929368019104
513,0.9879999756813049,0.03186463564634323,0.03186463564634323,1e-04,0.9295555353164673,0.9591763019561768,0.9591763019561768
514,0.9879999756813049,0.03084617666900158,0.03084617666900158,1e-04,0.9306666851043701,0.9579809904098511,0.9579809904098511
515,0.9879999756813049,0.030953072011470795,0.030953072011470795,1e-04,0.9317777752876282,0.9574272036552429,0.9574272036552429
516,0.9900000095367432,0.019615164026618004,0.019615164026618004,1e-04,0.9317777752876282,0.9580357074737549,0.9580357074737549
517,0.9900000095367432,0.03527170047163963,0.03527170047163963,1e-04,0.9317777752876282,0.9592848420143127,0.9592848420143127
518,0.9779999852180481,0.0401909165084362,0.0401909165084362,1e-04,0.9317777752876282,0.9608502388000488,0.9608502388000488
519,0.9919999837875366,0.026189597323536873,0.026189597323536873,1e-04,0.9313333630561829,0.9629608392715454,0.9629608392715454
520,0.9900000095367432,0.020073426887392998,0.020073426887392998,1e-04,0.9306666851043701,0.9661800265312195,0.9661800265312195
521,0.9940000176429749,0.020972054451704025,0.020972054451704025,1e-04,0.9275555610656738,0.9706087112426758,0.9706087112426758
522,0.9879999756813049,0.03358341380953789,0.03358341380953789,1e-04,0.9259999990463257,0.9745296239852905,0.9745296239852905
523,0.9900000095367432,0.03376362845301628,0.03376362845301628,1e-04,0.9266666769981384,0.9753153324127197,0.9753153324127197
524,0.9860000014305115,0.03108818642795086,0.03108818642795086,1e-04,0.9288889169692993,0.9737310409545898,0.9737310409545898
525,0.9940000176429749,0.02835698425769806,0.02835698425769806,1e-04,0.9331111311912537,0.9722851514816284,0.9722851514816284
526,0.9919999837875366,0.021607644855976105,0.021607644855976105,1e-04,0.933555543422699,0.97244793176651,0.97244793176651
527,0.9860000014305115,0.039358802139759064,0.039358802139759064,1e-04,0.9337777495384216,0.9737273454666138,0.9737273454666138
528,0.9879999756813049,0.03086436353623867,0.03086436353623867,1e-04,0.9337777495384216,0.9751972556114197,0.9751972556114197
529,0.9879999756813049,0.030629348009824753,0.030629348009824753,1e-04,0.9333333373069763,0.9767725467681885,0.9767725467681885
530,0.9860000014305115,0.030033769086003304,0.030033769086003304,1e-04,0.9333333373069763,0.9779994487762451,0.9779994487762451
531,0.9860000014305115,0.031070007011294365,0.031070007011294365,1e-04,0.9333333373069763,0.9805319905281067,0.9805319905281067
532,0.9900000095367432,0.0326426699757576,0.0326426699757576,1e-04,0.9319999814033508,0.9833648800849915,0.9833648800849915
533,0.9980000257492065,0.023462694138288498,0.023462694138288498,1e-04,0.9306666851043701,0.9858490824699402,0.9858490824699402
534,0.9879999756813049,0.025968780741095543,0.025968780741095543,1e-04,0.9293333292007446,0.9871482253074646,0.9871482253074646
535,0.9879999756813049,0.03915173187851906,0.03915173187851906,1e-04,0.9273333549499512,0.9890172481536865,0.9890172481536865
536,0.9900000095367432,0.030369650572538376,0.030369650572538376,1e-04,0.9259999990463257,0.9908115267753601,0.9908115267753601
537,0.9860000014305115,0.039475828409194946,0.039475828409194946,1e-04,0.9253333210945129,0.9911634922027588,0.9911634922027588
538,0.984000027179718,0.04014872759580612,0.04014872759580612,1e-04,0.9275555610656738,0.9895187616348267,0.9895187616348267
539,0.9900000095367432,0.02670327201485634,0.02670327201485634,1e-04,0.9295555353164673,0.9878986477851868,0.9878986477851868
540,0.9860000014305115,0.03579263761639595,0.03579263761639595,1e-04,0.9300000071525574,0.9868726134300232,0.9868726134300232
541,0.9919999837875366,0.027959832921624184,0.027959832921624184,1e-04,0.9322222471237183,0.9852851629257202,0.9852851629257202
542,0.9900000095367432,0.026047224178910255,0.026047224178910255,1e-04,0.9328888654708862,0.9848200082778931,0.9848200082778931
543,0.9900000095367432,0.02933327667415142,0.02933327667415142,1e-04,0.9322222471237183,0.9849676489830017,0.9849676489830017
544,0.9879999756813049,0.030536774545907974,0.030536774545907974,1e-04,0.9311110973358154,0.9858324527740479,0.9858324527740479
545,0.9919999837875366,0.025320354849100113,0.025320354849100113,1e-04,0.9304444193840027,0.9876583218574524,0.9876583218574524
546,0.9879999756813049,0.03010200522840023,0.03010200522840023,1e-04,0.9264444708824158,0.9914126396179199,0.9914126396179199
547,0.9860000014305115,0.03276132419705391,0.03276132419705391,1e-04,0.9253333210945129,0.9917746186256409,0.9917746186256409
548,0.9940000176429749,0.027545614168047905,0.027545614168047905,1e-04,0.9255555272102356,0.9904778599739075,0.9904778599739075
549,0.9940000176429749,0.020832844078540802,0.020832844078540802,1e-04,0.9277777671813965,0.9873986840248108,0.9873986840248108
550,0.9900000095367432,0.025881823152303696,0.025881823152303696,1e-04,0.9306666851043701,0.9852439165115356,0.9852439165115356
551,0.9940000176429749,0.02828044816851616,0.02828044816851616,1e-04,0.9313333630561829,0.9832171201705933,0.9832171201705933
552,0.9879999756813049,0.02241763100028038,0.02241763100028038,1e-04,0.9317777752876282,0.982059895992279,0.982059895992279
553,0.984000027179718,0.03888851776719093,0.03888851776719093,1e-04,0.9311110973358154,0.9817980527877808,0.9817980527877808
554,0.9860000014305115,0.024839064106345177,0.024839064106345177,1e-04,0.9308888912200928,0.9824729561805725,0.9824729561805725
555,0.984000027179718,0.03099590726196766,0.03099590726196766,1e-04,0.9297778010368347,0.9827868938446045,0.9827868938446045
556,0.9879999756813049,0.0281280018389225,0.0281280018389225,1e-04,0.9304444193840027,0.981066107749939,0.981066107749939
557,0.9860000014305115,0.030434153974056244,0.030434153974056244,1e-04,0.9304444193840027,0.9809007048606873,0.9809007048606873
558,0.9940000176429749,0.019872670993208885,0.019872670993208885,1e-04,0.9311110973358154,0.9809156060218811,0.9809156060218811
559,0.9879999756813049,0.024569157510995865,0.024569157510995865,1e-04,0.9324444532394409,0.9804502129554749,0.9804502129554749
560,0.9919999837875366,0.021997395902872086,0.021997395902872086,1e-04,0.9328888654708862,0.9808787107467651,0.9808787107467651
561,0.9919999837875366,0.02346532791852951,0.02346532791852951,1e-04,0.9326666593551636,0.9821029901504517,0.9821029901504517
562,0.9900000095367432,0.027437342330813408,0.027437342330813408,1e-04,0.93022221326828,0.9847688674926758,0.9847688674926758
563,0.9900000095367432,0.027000373229384422,0.027000373229384422,1e-04,0.93022221326828,0.9858976602554321,0.9858976602554321
564,0.9959999918937683,0.020124398171901703,0.020124398171901703,1e-04,0.9300000071525574,0.9858312606811523,0.9858312606811523
565,0.9900000095367432,0.026268145069479942,0.026268145069479942,1e-04,0.9295555353164673,0.9870046377182007,0.9870046377182007
566,0.9860000014305115,0.02729274518787861,0.02729274518787861,1e-04,0.9295555353164673,0.9876689314842224,0.9876689314842224
567,0.9919999837875366,0.024281075224280357,0.024281075224280357,1e-04,0.929111123085022,0.9891492128372192,0.9891492128372192
568,0.984000027179718,0.033949702978134155,0.033949702978134155,1e-04,0.9273333549499512,0.9940763711929321,0.9940763711929321
569,0.9940000176429749,0.02215723507106304,0.02215723507106304,1e-04,0.9242222309112549,1.0006729364395142,1.0006729364395142
570,0.9900000095367432,0.03514499589800835,0.03514499589800835,1e-04,0.9246666431427002,1.0029009580612183,1.0029009580612183
571,0.9860000014305115,0.030337020754814148,0.030337020754814148,1e-04,0.9279999732971191,1.0022032260894775,1.0022032260894775
572,0.9879999756813049,0.027898941189050674,0.027898941189050674,1e-04,0.9306666851043701,1.001880407333374,1.0018802881240845
573,0.9919999837875366,0.024432791396975517,0.024432791396975517,1e-04,0.9326666593551636,1.0058132410049438,1.0058132410049438
574,0.9879999756813049,0.026963144540786743,0.026963144540786743,1e-04,0.9317777752876282,1.0108678340911865,1.0108678340911865
575,0.9900000095367432,0.031122813001275063,0.031122813001275063,1e-04,0.9311110973358154,1.0158419609069824,1.0158419609069824
576,0.9860000014305115,0.038348861038684845,0.038348861038684845,1e-04,0.9293333292007446,1.020705223083496,1.020705223083496
577,0.9900000095367432,0.026989543810486794,0.026989543810486794,1e-04,0.9259999990463257,1.0262889862060547,1.0262889862060547
578,0.9900000095367432,0.030080383643507957,0.030080383643507957,1e-04,0.9231111407279968,1.0325253009796143,1.0325253009796143
579,0.9940000176429749,0.022333018481731415,0.022333018481731415,1e-04,0.9222221970558167,1.035508394241333,1.035508394241333
580,0.9879999756813049,0.03416510671377182,0.03416510671377182,1e-04,0.9248889088630676,1.0360294580459595,1.0360294580459595
581,0.9919999837875366,0.030975598841905594,0.030975598841905594,1e-04,0.9251111149787903,1.0365397930145264,1.0365397930145264
582,0.9879999756813049,0.031607888638973236,0.031607888638973236,1e-04,0.9264444708824158,1.035728096961975,1.035728096961975
583,0.9980000257492065,0.01624404452741146,0.01624404452741146,1e-04,0.9293333292007446,1.0344041585922241,1.0344041585922241
584,0.9919999837875366,0.02609439007937908,0.02609439007937908,1e-04,0.9297778010368347,1.034366488456726,1.034366488456726
585,0.9879999756813049,0.02759968489408493,0.02759968489408493,1e-04,0.9293333292007446,1.0364983081817627,1.0364983081817627
586,0.9959999918937683,0.015356797724962234,0.015356797724962234,1e-04,0.9286666512489319,1.0392370223999023,1.0392370223999023
587,0.9860000014305115,0.032037775963544846,0.032037775963544846,1e-04,0.9266666769981384,1.0421875715255737,1.0421875715255737
588,0.9919999837875366,0.02327459305524826,0.02327459305524826,1e-04,0.9266666769981384,1.0447067022323608,1.0447067022323608
589,0.9919999837875366,0.017021222040057182,0.017021222040057182,1e-04,0.9266666769981384,1.0454148054122925,1.0454148054122925
590,0.9980000257492065,0.018872486427426338,0.018872486427426338,1e-04,0.929111123085022,1.0443226099014282,1.0443226099014282
591,0.984000027179718,0.031929124146699905,0.031929124146699905,1e-04,0.93022221326828,1.0455381870269775,1.045538306236267
592,0.9940000176429749,0.01867559924721718,0.01867559924721718,1e-04,0.9306666851043701,1.0468075275421143,1.0468075275421143
593,0.9860000014305115,0.02893306314945221,0.02893306314945221,1e-04,0.93022221326828,1.0476042032241821,1.0476042032241821
594,0.9900000095367432,0.02641763724386692,0.02641763724386692,1e-04,0.929111123085022,1.0492717027664185,1.0492717027664185
595,0.9940000176429749,0.019996879622340202,0.019996879622340202,1e-04,0.9288889169692993,1.0507241487503052,1.0507241487503052
596,0.9879999756813049,0.04067402333021164,0.04067402333021164,1e-04,0.9284444451332092,1.052966594696045,1.052966594696045
597,0.9900000095367432,0.028636805713176727,0.028636805713176727,1e-04,0.9284444451332092,1.0534502267837524,1.0534502267837524
598,0.9959999918937683,0.019875483587384224,0.019875483587384224,1e-04,0.9277777671813965,1.0542157888412476,1.0542157888412476
599,0.9879999756813049,0.0295035969465971,0.0295035969465971,1e-04,0.9284444451332092,1.0543361902236938,1.0543361902236938
600,0.9940000176429749,0.017775170505046844,0.017775170505046844,1e-04,0.9297778010368347,1.0547235012054443,1.0547233819961548
601,0.984000027179718,0.023781871423125267,0.023781871423125267,1e-04,0.9288889169692993,1.0568673610687256,1.0568673610687256
602,0.9879999756813049,0.026811067014932632,0.026811067014932632,1e-04,0.9282222390174866,1.0585557222366333,1.0585557222366333
603,0.9919999837875366,0.020363716408610344,0.020363716408610344,1e-04,0.9279999732971191,1.0602813959121704,1.0602813959121704
604,0.9919999837875366,0.025481930002570152,0.025481930002570152,1e-04,0.9284444451332092,1.0610058307647705,1.0610058307647705
605,0.9860000014305115,0.03169817104935646,0.03169817104935646,1e-04,0.9288889169692993,1.0611333847045898,1.0611333847045898
606,0.9919999837875366,0.02545786462724209,0.02545786462724209,1e-04,0.9293333292007446,1.0607144832611084,1.0607144832611084
607,0.984000027179718,0.03389871120452881,0.03389871120452881,1e-04,0.9284444451332092,1.0620641708374023,1.0620641708374023
608,0.9900000095367432,0.024624329060316086,0.024624329060316086,1e-04,0.925777792930603,1.065368890762329,1.065368890762329
609,0.9940000176429749,0.022802915424108505,0.022802915424108505,1e-04,0.9255555272102356,1.067131757736206,1.067131757736206
610,0.9900000095367432,0.022973274812102318,0.022973274812102318,1e-04,0.9253333210945129,1.070001244544983,1.070001244544983
611,0.9940000176429749,0.015686554834246635,0.015686554834246635,1e-04,0.9246666431427002,1.0728721618652344,1.0728721618652344
612,0.9879999756813049,0.025459539145231247,0.025459539145231247,1e-04,0.9248889088630676,1.0749417543411255,1.0749417543411255
613,0.9919999837875366,0.024629781022667885,0.024629781022667885,1e-04,0.925777792930603,1.075132131576538,1.075132131576538
614,0.9919999837875366,0.028659584000706673,0.028659584000706673,1e-04,0.9268888831138611,1.0761677026748657,1.0761677026748657
615,0.9940000176429749,0.02167600579559803,0.02167600579559803,1e-04,0.9282222390174866,1.0767707824707031,1.0767707824707031
616,0.9900000095367432,0.02718374691903591,0.02718374691903591,1e-04,0.9279999732971191,1.0783915519714355,1.0783915519714355
617,0.984000027179718,0.0417659729719162,0.0417659729719162,1e-04,0.9279999732971191,1.0808027982711792,1.0808027982711792
618,0.9959999918937683,0.02039201930165291,0.02039201930165291,1e-04,0.9279999732971191,1.0819400548934937,1.0819400548934937
619,0.9900000095367432,0.021194124594330788,0.021194124594330788,1e-04,0.9308888912200928,1.0814802646636963,1.0814802646636963
620,0.9919999837875366,0.0199651587754488,0.0199651587754488,1e-04,0.9331111311912537,1.080814003944397,1.080814003944397
621,0.9959999918937683,0.020159445703029633,0.020159445703029633,1e-04,0.9337777495384216,1.0808740854263306,1.0808740854263306
622,0.9879999756813049,0.021998152136802673,0.021998152136802673,1e-04,0.9342222213745117,1.0814628601074219,1.0814628601074219
623,0.9900000095367432,0.02435769885778427,0.02435769885778427,1e-04,0.933555543422699,1.0838037729263306,1.0838037729263306
624,0.9879999756813049,0.031204579398036003,0.031204579398036003,1e-04,0.9304444193840027,1.0885652303695679,1.0885652303695679
625,0.9879999756813049,0.030956072732806206,0.030956072732806206,1e-04,0.9255555272102356,1.0950301885604858,1.0950301885604858
626,0.9959999918937683,0.017479855567216873,0.017479855567216873,1e-04,0.9251111149787903,1.0973293781280518,1.0973293781280518
627,0.9900000095367432,0.027581486850976944,0.027581486850976944,1e-04,0.9259999990463257,1.0972168445587158,1.0972168445587158
628,0.9919999837875366,0.02029351517558098,0.02029351517558098,1e-04,0.9277777671813965,1.0961180925369263,1.0961180925369263
629,0.9919999837875366,0.02434934675693512,0.02434934675693512,1e-04,0.9313333630561829,1.0945104360580444,1.0945104360580444
630,0.9900000095367432,0.02305786684155464,0.02305786684155464,1e-04,0.9326666593551636,1.094796895980835,1.094796895980835
631,0.9940000176429749,0.01608203537762165,0.01608203537762165,1e-04,0.933555543422699,1.0958502292633057,1.0958502292633057
632,0.9919999837875366,0.02480372041463852,0.02480372041463852,1e-04,0.933555543422699,1.0973749160766602,1.0973749160766602
633,0.9900000095367432,0.026271769776940346,0.026271769776940346,1e-04,0.9331111311912537,1.099363923072815,1.099363923072815
634,0.9819999933242798,0.036282073706388474,0.036282073706388474,1e-04,0.93022221326828,1.100498080253601,1.100498080253601
635,0.9980000257492065,0.017236581072211266,0.017236581072211266,1e-04,0.9295555353164673,1.1009974479675293,1.1009974479675293
636,0.9900000095367432,0.025993244722485542,0.025993244722485542,1e-04,0.9306666851043701,1.1000065803527832,1.1000065803527832
637,0.9879999756813049,0.02456389181315899,0.02456389181315899,1e-04,0.9297778010368347,1.1003615856170654,1.1003615856170654
638,0.9860000014305115,0.0251302570104599,0.0251302570104599,1e-04,0.9279999732971191,1.1022145748138428,1.1022145748138428
639,0.9900000095367432,0.026464873924851418,0.026464873924851418,1e-04,0.9251111149787903,1.1040319204330444,1.1040319204330444
640,0.9919999837875366,0.0182840283960104,0.0182840283960104,1e-04,0.9242222309112549,1.1058300733566284,1.1058300733566284
641,0.9959999918937683,0.01331685483455658,0.01331685483455658,1e-04,0.9237777590751648,1.1064724922180176,1.1064724922180176
642,0.9879999756813049,0.026167551055550575,0.026167551055550575,1e-04,0.9242222309112549,1.1051791906356812,1.1051791906356812
643,0.9940000176429749,0.022351667284965515,0.022351667284965515,1e-04,0.9282222390174866,1.1030956506729126,1.1030956506729126
644,0.9919999837875366,0.023550258949398994,0.023550258949398994,1e-04,0.9282222390174866,1.1014978885650635,1.1014978885650635
645,0.9879999756813049,0.03568832576274872,0.03568832576274872,1e-04,0.9288889169692993,1.1014301776885986,1.1014301776885986
646,0.9980000257492065,0.014407931827008724,0.014407931827008724,1e-04,0.9304444193840027,1.1005635261535645,1.1005635261535645
647,0.9879999756813049,0.023987192660570145,0.023987192660570145,1e-04,0.93022221326828,1.1011533737182617,1.1011533737182617
648,0.9919999837875366,0.02137324959039688,0.02137324959039688,1e-04,0.9297778010368347,1.1043981313705444,1.1043981313705444
649,0.9919999837875366,0.025968044996261597,0.025968044996261597,1e-04,0.9297778010368347,1.1074914932250977,1.1074914932250977
650,0.9900000095367432,0.02494487725198269,0.02494487725198269,1e-04,0.929111123085022,1.1116721630096436,1.1116721630096436
651,0.9980000257492065,0.015658874064683914,0.015658874064683914,1e-04,0.9284444451332092,1.1158018112182617,1.1158018112182617
652,0.9900000095367432,0.02640812285244465,0.02640812285244465,1e-04,0.9284444451332092,1.1197184324264526,1.1197184324264526
653,0.9900000095367432,0.027720961719751358,0.027720961719751358,1e-04,0.9264444708824158,1.1240984201431274,1.1240984201431274
654,0.9919999837875366,0.019030580297112465,0.019030580297112465,1e-04,0.9259999990463257,1.1268843412399292,1.1268843412399292
655,0.9900000095367432,0.023892953991889954,0.023892953991889954,1e-04,0.9271110892295837,1.1285827159881592,1.1285827159881592
656,0.9860000014305115,0.025025490671396255,0.025025490671396255,1e-04,0.9275555610656738,1.1290233135223389,1.1290233135223389
657,0.9900000095367432,0.03180718794465065,0.03180718794465065,1e-04,0.9286666512489319,1.1298701763153076,1.1298701763153076
658,0.9900000095367432,0.026468941941857338,0.026468941941857338,1e-04,0.9311110973358154,1.1303266286849976,1.1303266286849976
659,0.9919999837875366,0.022791512310504913,0.022791512310504913,1e-04,0.9331111311912537,1.1319231986999512,1.1319231986999512
660,0.9940000176429749,0.020395487546920776,0.020395487546920776,1e-04,0.9337777495384216,1.133683681488037,1.133683681488037
661,0.9879999756813049,0.029987826943397522,0.029987826943397522,1e-04,0.933555543422699,1.135846734046936,1.135846734046936
662,0.9900000095367432,0.022217195481061935,0.022217195481061935,1e-04,0.9313333630561829,1.1389931440353394,1.1389930248260498
663,0.9860000014305115,0.030796827748417854,0.030796827748417854,1e-04,0.9266666769981384,1.1448668241500854,1.1448668241500854
664,0.9940000176429749,0.018027063459157944,0.018027063459157944,1e-04,0.9259999990463257,1.1482512950897217,1.1482512950897217
665,0.9959999918937683,0.015811216086149216,0.015811216086149216,1e-04,0.9251111149787903,1.1494781970977783,1.1494780778884888
666,0.9879999756813049,0.025314897298812866,0.025314897298812866,1e-04,0.9248889088630676,1.151230812072754,1.151230812072754
667,0.9959999918937683,0.014323865063488483,0.014323865063488483,1e-04,0.9264444708824158,1.1518354415893555,1.1518354415893555
668,0.9959999918937683,0.02544248476624489,0.02544248476624489,1e-04,0.9264444708824158,1.1516385078430176,1.1516385078430176
669,0.9959999918937683,0.013634308241307735,0.013634308241307735,1e-04,0.9271110892295837,1.1513845920562744,1.1513845920562744
670,0.9940000176429749,0.021483784541487694,0.021483784541487694,1e-04,0.9268888831138611,1.1521658897399902,1.1521658897399902
671,0.9940000176429749,0.01862301677465439,0.01862301677465439,1e-04,0.9268888831138611,1.1521673202514648,1.1521673202514648
672,0.9919999837875366,0.020511511713266373,0.020511511713266373,1e-04,0.9273333549499512,1.1514298915863037,1.1514298915863037
673,0.9860000014305115,0.02911965548992157,0.02911965548992157,1e-04,0.929111123085022,1.150641679763794,1.150641679763794
674,0.9879999756813049,0.03604219853878021,0.03604219853878021,1e-04,0.9288889169692993,1.1501386165618896,1.1501386165618896
675,0.9879999756813049,0.025368286296725273,0.025368286296725273,1e-04,0.9266666769981384,1.151237964630127,1.151237964630127
676,0.9940000176429749,0.02134518325328827,0.02134518325328827,1e-04,0.9271110892295837,1.151051640510559,1.151051640510559
677,0.9860000014305115,0.026101285591721535,0.026101285591721535,1e-04,0.9266666769981384,1.1514220237731934,1.1514220237731934
678,0.9940000176429749,0.017034374177455902,0.017034374177455902,1e-04,0.9275555610656738,1.1482956409454346,1.1482956409454346
679,0.984000027179718,0.03601573780179024,0.03601573780179024,1e-04,0.9295555353164673,1.144384503364563,1.144384503364563
680,0.9980000257492065,0.010954790748655796,0.010954790748655796,1e-04,0.9315555691719055,1.1421390771865845,1.1421390771865845
681,0.9879999756813049,0.026772011071443558,0.026772011071443558,1e-04,0.9308888912200928,1.1426365375518799,1.1426365375518799
682,0.9959999918937683,0.01440615113824606,0.01440615113824606,1e-04,0.9306666851043701,1.1428216695785522,1.1428216695785522
683,0.9919999837875366,0.016199667006731033,0.016199667006731033,1e-04,0.9297778010368347,1.1439450979232788,1.1439450979232788
684,0.9940000176429749,0.015487036667764187,0.015487036667764187,1e-04,0.9288889169692993,1.1452487707138062,1.1452487707138062
685,0.9879999756813049,0.02486085146665573,0.02486085146665573,1e-04,0.9286666512489319,1.145519733428955,1.145519733428955
686,0.9919999837875366,0.01968889683485031,0.01968889683485031,1e-04,0.9286666512489319,1.1453405618667603,1.1453405618667603
687,0.9919999837875366,0.02619357779622078,0.02619357779622078,1e-04,0.9288889169692993,1.1448822021484375,1.1448822021484375
688,0.9919999837875366,0.026358414441347122,0.026358414441347122,1e-04,0.9295555353164673,1.1451717615127563,1.1451717615127563
689,0.9900000095367432,0.021769151091575623,0.021769151091575623,1e-04,0.9300000071525574,1.146315097808838,1.146315097808838
690,0.9900000095367432,0.030771315097808838,0.030771315097808838,1e-04,0.9293333292007446,1.1477049589157104,1.1477049589157104
691,0.984000027179718,0.026610296219587326,0.026610296219587326,1e-04,0.9277777671813965,1.1510663032531738,1.1510663032531738
692,0.9900000095367432,0.03214317187666893,0.03214317187666893,1e-04,0.9253333210945129,1.1540882587432861,1.1540882587432861
693,0.9959999918937683,0.014695997349917889,0.014695997349917889,1e-04,0.9244444370269775,1.1561675071716309,1.1561675071716309
694,0.9940000176429749,0.018982991576194763,0.018982991576194763,1e-04,0.9228888750076294,1.1587815284729004,1.1587815284729004
695,0.9919999837875366,0.019314205273985863,0.019314205273985863,1e-04,0.9226666688919067,1.1595494747161865,1.1595494747161865
696,0.9919999837875366,0.019238024950027466,0.019238024950027466,1e-04,0.925777792930603,1.1560556888580322,1.1560556888580322
697,0.9919999837875366,0.021251723170280457,0.021251723170280457,1e-04,0.929111123085022,1.1514278650283813,1.1514278650283813
698,1.0,0.009930441156029701,0.009930441156029701,1e-04,0.9324444532394409,1.150265097618103,1.150265097618103
699,0.9879999756813049,0.021173246204853058,0.021173246204853058,1e-04,0.9326666593551636,1.1509705781936646,1.1509705781936646
700,0.9919999837875366,0.02185923047363758,0.02185923047363758,1e-04,0.9315555691719055,1.1526387929916382,1.1526387929916382
701,0.984000027179718,0.03219347074627876,0.03219347074627876,1e-04,0.9279999732971191,1.1595711708068848,1.1595711708068848
702,0.9980000257492065,0.014063824899494648,0.014063824899494648,1e-04,0.9244444370269775,1.1682384014129639,1.1682384014129639
703,0.9959999918937683,0.016214292496442795,0.016214292496442795,1e-04,0.9231111407279968,1.1722995042800903,1.1722995042800903
704,0.9919999837875366,0.028029169887304306,0.028029169887304306,1e-04,0.9242222309112549,1.1730245351791382,1.1730245351791382
705,0.9919999837875366,0.01891927421092987,0.01891927421092987,1e-04,0.9266666769981384,1.1711442470550537,1.1711442470550537
706,0.9900000095367432,0.026617752388119698,0.026617752388119698,1e-04,0.9286666512489319,1.1693475246429443,1.1693475246429443
707,0.9959999918937683,0.016500411555171013,0.016500411555171013,1e-04,0.9300000071525574,1.1681528091430664,1.1681528091430664
708,0.9940000176429749,0.01985042169690132,0.01985042169690132,1e-04,0.9306666851043701,1.1685103178024292,1.1685103178024292
709,0.9919999837875366,0.021460184827446938,0.021460184827446938,1e-04,0.9313333630561829,1.1692184209823608,1.1692184209823608
710,0.9940000176429749,0.019931459799408913,0.019931459799408913,1e-04,0.9308888912200928,1.170558214187622,1.170558214187622
711,0.9919999837875366,0.02025819756090641,0.02025819756090641,1e-04,0.9295555353164673,1.1719744205474854,1.1719744205474854
712,0.9919999837875366,0.019289040938019753,0.019289040938019753,1e-04,0.9277777671813965,1.173237919807434,1.173237919807434
713,0.9980000257492065,0.012238597497344017,0.012238597497344017,1e-04,0.9277777671813965,1.1743026971817017,1.1743026971817017
714,0.9980000257492065,0.01016601175069809,0.01016601175069809,1e-04,0.9259999990463257,1.1761553287506104,1.1761553287506104
715,0.9940000176429749,0.020548760890960693,0.020548760890960693,1e-04,0.9240000247955322,1.1799774169921875,1.1799774169921875
716,0.9860000014305115,0.03931599482893944,0.03931599482893944,1e-04,0.9222221970558167,1.1804054975509644,1.1804054975509644
717,0.9959999918937683,0.01541646383702755,0.01541646383702755,1e-04,0.9226666688919067,1.178770661354065,1.178770661354065
718,0.9879999756813049,0.023511607199907303,0.023511607199907303,1e-04,0.9255555272102356,1.1741199493408203,1.1741199493408203
719,0.9879999756813049,0.027392011135816574,0.027392011135816574,1e-04,0.9264444708824158,1.1721349954605103,1.1721349954605103
720,0.9900000095367432,0.03191766142845154,0.03191766142845154,1e-04,0.9264444708824158,1.1721727848052979,1.1721727848052979
721,0.9879999756813049,0.02066819928586483,0.02066819928586483,1e-04,0.9271110892295837,1.1707793474197388,1.1707793474197388
722,0.9919999837875366,0.022224459797143936,0.022224459797143936,1e-04,0.9288889169692993,1.169456958770752,1.169456958770752
723,0.9959999918937683,0.0173749141395092,0.0173749141395092,1e-04,0.9304444193840027,1.1680777072906494,1.1680777072906494
724,0.9980000257492065,0.014576842077076435,0.014576842077076435,1e-04,0.9317777752876282,1.1670501232147217,1.1670501232147217
725,0.9959999918937683,0.01181233674287796,0.01181233674287796,1e-04,0.9326666593551636,1.1668528318405151,1.1668528318405151
726,0.9919999837875366,0.028265656903386116,0.028265656903386116,1e-04,0.9317777752876282,1.1667758226394653,1.1667758226394653
727,0.9879999756813049,0.02068152464926243,0.02068152464926243,1e-04,0.9300000071525574,1.1680811643600464,1.1680811643600464
728,0.9900000095367432,0.02626802958548069,0.02626802958548069,1e-04,0.9284444451332092,1.1702673435211182,1.1702673435211182
729,0.9959999918937683,0.015037700533866882,0.015037700533866882,1e-04,0.9275555610656738,1.1718000173568726,1.1718000173568726
730,0.9980000257492065,0.015244134701788425,0.015244134701788425,1e-04,0.9271110892295837,1.1737465858459473,1.1737465858459473
731,0.9919999837875366,0.026013338938355446,0.026013338938355446,1e-04,0.9259999990463257,1.174924373626709,1.174924373626709
732,0.9900000095367432,0.023207100108265877,0.023207100108265877,1e-04,0.9251111149787903,1.1775528192520142,1.1775528192520142
733,0.9940000176429749,0.018981752917170525,0.018981752917170525,1e-04,0.9259999990463257,1.177060604095459,1.177060604095459
734,0.9860000014305115,0.033342864364385605,0.033342864364385605,1e-04,0.9277777671813965,1.1744970083236694,1.1744970083236694
735,0.9919999837875366,0.02131475880742073,0.02131475880742073,1e-04,0.9282222390174866,1.1728037595748901,1.1728037595748901
736,0.9940000176429749,0.01535092294216156,0.01535092294216156,1e-04,0.9308888912200928,1.1711716651916504,1.1711716651916504
737,0.9940000176429749,0.02143368497490883,0.02143368497490883,1e-04,0.9313333630561829,1.1712048053741455,1.1712048053741455
738,0.9919999837875366,0.020519524812698364,0.020519524812698364,1e-04,0.9324444532394409,1.1717547178268433,1.1717547178268433
739,0.9860000014305115,0.031766265630722046,0.031766265630722046,1e-04,0.9293333292007446,1.1741893291473389,1.1741893291473389
740,1.0,0.009801767766475677,0.009801767766475677,1e-04,0.9275555610656738,1.1776540279388428,1.1776540279388428
741,0.9879999756813049,0.021727310493588448,0.021727310493588448,1e-04,0.9255555272102356,1.1810264587402344,1.1810264587402344
742,0.9900000095367432,0.028312454000115395,0.028312454000115395,1e-04,0.9240000247955322,1.1849349737167358,1.1849349737167358
743,0.9919999837875366,0.025998538359999657,0.025998538359999657,1e-04,0.9248889088630676,1.1859917640686035,1.1859917640686035
744,0.9959999918937683,0.02027067169547081,0.02027067169547081,1e-04,0.9277777671813965,1.1841909885406494,1.1841909885406494
745,0.9940000176429749,0.016601059585809708,0.016601059585809708,1e-04,0.9293333292007446,1.185164213180542,1.185164213180542
746,0.9959999918937683,0.01155811920762062,0.01155811920762062,1e-04,0.9308888912200928,1.1866968870162964,1.1866968870162964
747,0.9879999756813049,0.030756117776036263,0.030756117776036263,1e-04,0.9313333630561829,1.1886214017868042,1.1886214017868042
748,0.9919999837875366,0.024436110630631447,0.024436110630631447,1e-04,0.9308888912200928,1.1904653310775757,1.1904653310775757
749,0.9940000176429749,0.025197086855769157,0.025197086855769157,1e-04,0.9297778010368347,1.1924035549163818,1.1924035549163818
750,0.9980000257492065,0.013706816360354424,0.013706816360354424,1e-04,0.9297778010368347,1.1940406560897827,1.1940406560897827
751,0.9900000095367432,0.019144093617796898,0.019144093617796898,1e-04,0.9279999732971191,1.19741690158844,1.19741690158844
752,0.9980000257492065,0.015004069544374943,0.015004069544374943,1e-04,0.9264444708824158,1.2011319398880005,1.2011319398880005
753,0.9940000176429749,0.01965462416410446,0.01965462416410446,1e-04,0.9253333210945129,1.203573226928711,1.203573226928711
754,0.9940000176429749,0.021044805645942688,0.021044805645942688,1e-04,0.9279999732971191,1.2003381252288818,1.2003381252288818
755,0.9940000176429749,0.022325169295072556,0.022325169295072556,1e-04,0.9304444193840027,1.1986525058746338,1.1986525058746338
756,0.9980000257492065,0.014010822400450706,0.014010822400450706,1e-04,0.9317777752876282,1.197482705116272,1.197482705116272
757,0.9919999837875366,0.015151280909776688,0.015151280909776688,1e-04,0.9337777495384216,1.1977194547653198,1.1977194547653198
758,0.9879999756813049,0.025685211643576622,0.025685211643576622,1e-04,0.933555543422699,1.198939323425293,1.198939323425293
759,0.9919999837875366,0.023382293060421944,0.023382293060421944,1e-04,0.9333333373069763,1.199898600578308,1.199898600578308
760,0.984000027179718,0.02578676864504814,0.02578676864504814,1e-04,0.9311110973358154,1.2026480436325073,1.2026480436325073
761,0.9879999756813049,0.02358274906873703,0.02358274906873703,1e-04,0.9262222051620483,1.2088265419006348,1.2088265419006348
762,0.9900000095367432,0.026538508012890816,0.026538508012890816,1e-04,0.9233333468437195,1.21418297290802,1.21418297290802
763,0.9940000176429749,0.02074115164577961,0.02074115164577961,1e-04,0.9226666688919067,1.2131810188293457,1.2131810188293457
764,0.9900000095367432,0.028373071923851967,0.028373071923851967,1e-04,0.9251111149787903,1.2073131799697876,1.2073131799697876
765,0.9959999918937683,0.013600918464362621,0.013600918464362621,1e-04,0.9282222390174866,1.2039140462875366,1.2039140462875366
766,0.9919999837875366,0.017287123948335648,0.017287123948335648,1e-04,0.9297778010368347,1.2028467655181885,1.2028467655181885
767,0.9919999837875366,0.01726360060274601,0.01726360060274601,1e-04,0.9304444193840027,1.2021875381469727,1.2021875381469727
768,0.9900000095367432,0.025866124778985977,0.025866124778985977,1e-04,0.9304444193840027,1.202325463294983,1.202325463294983
769,0.9940000176429749,0.022307774052023888,0.022307774052023888,1e-04,0.9266666769981384,1.2037534713745117,1.2037534713745117
770,0.9959999918937683,0.022129446268081665,0.022129446268081665,1e-04,0.9237777590751648,1.2071980237960815,1.2071980237960815
771,0.9940000176429749,0.01679101586341858,0.01679101586341858,1e-04,0.9215555787086487,1.2107216119766235,1.2107216119766235
772,0.9959999918937683,0.016713768243789673,0.016713768243789673,1e-04,0.9215555787086487,1.2114121913909912,1.2114121913909912
773,0.9980000257492065,0.017796536907553673,0.017796536907553673,1e-04,0.9233333468437195,1.2087782621383667,1.2087782621383667
774,0.9919999837875366,0.023919379338622093,0.023919379338622093,1e-04,0.9233333468437195,1.2083245515823364,1.2083245515823364
775,0.9940000176429749,0.017862772569060326,0.017862772569060326,1e-04,0.9235555529594421,1.2077749967575073,1.2077749967575073
776,0.9900000095367432,0.02654336951673031,0.02654336951673031,1e-04,0.9255555272102356,1.2060308456420898,1.2060308456420898
777,0.9879999756813049,0.025942834094166756,0.025942834094166756,1e-04,0.9275555610656738,1.20465886592865,1.20465886592865
778,0.9919999837875366,0.017691148445010185,0.017691148445010185,1e-04,0.9282222390174866,1.2023646831512451,1.2023646831512451
779,0.9940000176429749,0.017507795244455338,0.017507795244455338,1e-04,0.9288889169692993,1.2014377117156982,1.2014377117156982
780,0.9959999918937683,0.013467946089804173,0.013467946089804173,1e-04,0.9284444451332092,1.2012537717819214,1.2012537717819214
781,0.9900000095367432,0.02288210578262806,0.02288210578262806,1e-04,0.9284444451332092,1.2010704278945923,1.2010704278945923
782,0.9879999756813049,0.01906540058553219,0.01906540058553219,1e-04,0.9279999732971191,1.2007590532302856,1.2007590532302856
783,0.9959999918937683,0.015019758604466915,0.015019758604466915,1e-04,0.9273333549499512,1.2015198469161987,1.2015198469161987
784,0.9940000176429749,0.016577990725636482,0.016577990725636482,1e-04,0.9264444708824158,1.2030839920043945,1.203084111213684
785,0.9919999837875366,0.01905234344303608,0.01905234344303608,1e-04,0.9264444708824158,1.203859806060791,1.203859806060791
786,0.9919999837875366,0.02308378368616104,0.02308378368616104,1e-04,0.9259999990463257,1.2050267457962036,1.2050267457962036
787,0.9980000257492065,0.01636892557144165,0.01636892557144165,1e-04,0.9255555272102356,1.2055248022079468,1.2055248022079468
788,0.9919999837875366,0.02140052057802677,0.02140052057802677,1e-04,0.9255555272102356,1.2081336975097656,1.2081336975097656
789,0.9919999837875366,0.021530475467443466,0.021530475467443466,1e-04,0.921999990940094,1.2133240699768066,1.2133240699768066
790,0.9900000095367432,0.02054518647491932,0.02054518647491932,1e-04,0.9202222228050232,1.2190721035003662,1.2190721035003662
791,0.9940000176429749,0.01189693808555603,0.01189693808555603,1e-04,0.9162222146987915,1.2251980304718018,1.2251980304718018
792,0.9879999756813049,0.025647860020399094,0.025647860020399094,1e-04,0.9155555367469788,1.2279325723648071,1.2279325723648071
793,0.9940000176429749,0.02212749421596527,0.02212749421596527,1e-04,0.9191111326217651,1.2247543334960938,1.2247543334960938
794,0.9879999756813049,0.02959519810974598,0.02959519810974598,1e-04,0.9231111407279968,1.220324993133545,1.220324993133545
795,0.9919999837875366,0.01665104739367962,0.01665104739367962,1e-04,0.9268888831138611,1.2170515060424805,1.2170515060424805
796,0.9940000176429749,0.02089102193713188,0.02089102193713188,1e-04,0.9286666512489319,1.2161396741867065,1.2161396741867065
797,0.9900000095367432,0.024017391726374626,0.024017391726374626,1e-04,0.9297778010368347,1.216217041015625,1.216217041015625
798,0.9940000176429749,0.021060898900032043,0.021060898900032043,1e-04,0.9286666512489319,1.2172859907150269,1.2172859907150269
799,0.9879999756813049,0.021096186712384224,0.021096186712384224,1e-04,0.9279999732971191,1.2194535732269287,1.2194535732269287
800,0.9959999918937683,0.012534009292721748,0.012534009292721748,1e-04,0.9273333549499512,1.222389817237854,1.222389817237854
801,0.9900000095367432,0.021677952259778976,0.021677952259778976,1e-04,0.9235555529594421,1.2284973859786987,1.2284973859786987
802,0.9940000176429749,0.019055038690567017,0.019055038690567017,1e-04,0.925777792930603,1.2260198593139648,1.2260198593139648
803,0.984000027179718,0.029282864183187485,0.029282864183187485,1e-04,0.9279999732971191,1.223118543624878,1.223118543624878
804,0.9940000176429749,0.02072783000767231,0.02072783000767231,1e-04,0.9311110973358154,1.2235814332962036,1.2235814332962036
805,0.9980000257492065,0.013955795206129551,0.013955795206129551,1e-04,0.9328888654708862,1.2250226736068726,1.225022554397583
806,0.9900000095367432,0.02239520475268364,0.02239520475268364,1e-04,0.9333333373069763,1.2273293733596802,1.2273293733596802
807,0.9980000257492065,0.010427214205265045,0.010427214205265045,1e-04,0.933555543422699,1.2296866178512573,1.2296866178512573
808,0.9940000176429749,0.017656493932008743,0.017656493932008743,1e-04,0.9322222471237183,1.232203722000122,1.232203722000122
809,0.9959999918937683,0.017459621652960777,0.017459621652960777,1e-04,0.9315555691719055,1.2317862510681152,1.2317862510681152
810,0.9900000095367432,0.031032904982566833,0.031032904982566833,1e-04,0.9288889169692993,1.2326061725616455,1.2326061725616455
811,0.9879999756813049,0.028202729299664497,0.028202729299664497,1e-04,0.9244444370269775,1.237127661705017,1.237127661705017
812,0.9959999918937683,0.015200460329651833,0.015200460329651833,1e-04,0.9215555787086487,1.2406864166259766,1.2406864166259766
813,0.9879999756813049,0.02996886894106865,0.02996886894106865,1e-04,0.9213333129882812,1.2399497032165527,1.2399497032165527
814,0.9940000176429749,0.023306425660848618,0.023306425660848618,1e-04,0.9231111407279968,1.2336395978927612,1.2336395978927612
815,0.9900000095367432,0.019182216376066208,0.019182216376066208,1e-04,0.9242222309112549,1.2295291423797607,1.2295291423797607
816,0.9900000095367432,0.017808666452765465,0.017808666452765465,1e-04,0.9248889088630676,1.2271710634231567,1.2271710634231567
817,0.9980000257492065,0.01190849207341671,0.01190849207341671,1e-04,0.9264444708824158,1.2233580350875854,1.2233580350875854
818,0.9959999918937683,0.01626751385629177,0.01626751385629177,1e-04,0.9268888831138611,1.2207731008529663,1.2207731008529663
819,0.9919999837875366,0.024489475414156914,0.024489475414156914,1e-04,0.9264444708824158,1.2200413942337036,1.2200413942337036
820,0.9919999837875366,0.0252124834805727,0.0252124834805727,1e-04,0.9264444708824158,1.2184302806854248,1.2184302806854248
821,0.9940000176429749,0.017186639830470085,0.017186639830470085,1e-04,0.9264444708824158,1.2171672582626343,1.2171672582626343
822,0.984000027179718,0.03406573832035065,0.03406573832035065,1e-04,0.9253333210945129,1.21495521068573,1.21495521068573
823,0.9900000095367432,0.02079153060913086,0.02079153060913086,1e-04,0.9235555529594421,1.2140285968780518,1.2140285968780518
824,0.9980000257492065,0.010390899144113064,0.010390899144113064,1e-04,0.9235555529594421,1.2127877473831177,1.2127877473831177
825,0.9959999918937683,0.01815970055758953,0.01815970055758953,1e-04,0.9246666431427002,1.2102289199829102,1.2102289199829102
826,0.9959999918937683,0.01690359227359295,0.01690359227359295,1e-04,0.929111123085022,1.2029263973236084,1.2029263973236084
827,0.9919999837875366,0.018752753734588623,0.018752753734588623,1e-04,0.9317777752876282,1.1969469785690308,1.1969469785690308
828,0.9959999918937683,0.01296017412096262,0.01296017412096262,1e-04,0.9331111311912537,1.1937370300292969,1.1937370300292969
829,0.9940000176429749,0.01586165837943554,0.01586165837943554,1e-04,0.9351111054420471,1.191659927368164,1.191659927368164
830,0.9900000095367432,0.018108753487467766,0.018108753487467766,1e-04,0.9351111054420471,1.18991219997406,1.18991219997406
831,0.9919999837875366,0.0152332354336977,0.0152332354336977,1e-04,0.9331111311912537,1.188812017440796,1.188812017440796
832,0.9919999837875366,0.015389013104140759,0.015389013104140759,1e-04,0.9317777752876282,1.189031958580017,1.189031958580017
833,0.9940000176429749,0.018571583554148674,0.018571583554148674,1e-04,0.9304444193840027,1.1917766332626343,1.1917766332626343
834,0.9959999918937683,0.01576666347682476,0.01576666347682476,1e-04,0.9255555272102356,1.1983933448791504,1.19839346408844
835,0.9860000014305115,0.0319678820669651,0.0319678820669651,1e-04,0.9226666688919067,1.200279951095581,1.200279951095581
836,0.9959999918937683,0.015806114301085472,0.015806114301085472,1e-04,0.9240000247955322,1.1967496871948242,1.1967496871948242
837,0.9980000257492065,0.017126327380537987,0.017126327380537987,1e-04,0.9264444708824158,1.1919362545013428,1.1919362545013428
838,0.9980000257492065,0.014599177986383438,0.014599177986383438,1e-04,0.9286666512489319,1.188790202140808,1.188790202140808
839,0.9919999837875366,0.017293985933065414,0.017293985933065414,1e-04,0.9286666512489319,1.1877388954162598,1.1877387762069702
840,0.9919999837875366,0.01945691928267479,0.01945691928267479,1e-04,0.9304444193840027,1.1871963739395142,1.1871964931488037
841,0.9900000095367432,0.02141667529940605,0.02141667529940605,1e-04,0.9288889169692993,1.1881564855575562,1.1881564855575562
842,0.9900000095367432,0.020824093371629715,0.020824093371629715,1e-04,0.9275555610656738,1.1899875402450562,1.1899875402450562
843,0.9919999837875366,0.025276094675064087,0.025276094675064087,1e-04,0.9251111149787903,1.19320547580719,1.19320547580719
844,0.9940000176429749,0.01904667168855667,0.01904667168855667,1e-04,0.9246666431427002,1.1950557231903076,1.1950557231903076
845,0.9919999837875366,0.02101697400212288,0.02101697400212288,1e-04,0.9235555529594421,1.1965651512145996,1.1965651512145996
846,0.9959999918937683,0.015429212711751461,0.015429212711751461,1e-04,0.9248889088630676,1.1967723369598389,1.1967723369598389
847,0.9919999837875366,0.017141276970505714,0.017141276970505714,1e-04,0.9253333210945129,1.1972482204437256,1.1972482204437256
848,0.9940000176429749,0.014384553767740726,0.014384553767740726,1e-04,0.925777792930603,1.1971063613891602,1.1971063613891602
849,0.984000027179718,0.028611909598112106,0.028611909598112106,1e-04,0.9273333549499512,1.1969343423843384,1.1969343423843384
850,0.9959999918937683,0.018099889159202576,0.018099889159202576,1e-04,0.93022221326828,1.1968803405761719,1.1968803405761719
851,0.9980000257492065,0.013026615604758263,0.013026615604758263,1e-04,0.9308888912200928,1.1973423957824707,1.1973423957824707
852,0.9919999837875366,0.018072959035634995,0.018072959035634995,1e-04,0.9306666851043701,1.1988590955734253,1.1988590955734253
853,0.9900000095367432,0.020965324714779854,0.020965324714779854,1e-04,0.9284444451332092,1.2003183364868164,1.2003183364868164
854,0.9980000257492065,0.009952852502465248,0.009952852502465248,1e-04,0.9266666769981384,1.2023569345474243,1.2023569345474243
855,0.9919999837875366,0.023051444441080093,0.023051444441080093,1e-04,0.9244444370269775,1.2050936222076416,1.2050936222076416
856,0.9919999837875366,0.019464660435914993,0.019464660435914993,1e-04,0.9242222309112549,1.2047419548034668,1.2047419548034668
857,0.9900000095367432,0.029250454157590866,0.029250454157590866,1e-04,0.9264444708824158,1.2028974294662476,1.2028974294662476
858,0.9940000176429749,0.016117993742227554,0.016117993742227554,1e-04,0.9264444708824158,1.2033846378326416,1.2033846378326416
859,0.9919999837875366,0.01771514303982258,0.01771514303982258,1e-04,0.9273333549499512,1.2028239965438843,1.2028239965438843
860,0.9959999918937683,0.014353466220200062,0.014353466220200062,1e-04,0.9268888831138611,1.2030349969863892,1.2030349969863892
861,0.9940000176429749,0.016475753858685493,0.016475753858685493,1e-04,0.9271110892295837,1.2035977840423584,1.2035977840423584
862,0.9980000257492065,0.008983825333416462,0.008983825333416462,1e-04,0.9271110892295837,1.203525185585022,1.203525185585022
863,0.9940000176429749,0.016000419855117798,0.016000419855117798,1e-04,0.9277777671813965,1.2029119729995728,1.2029119729995728
864,0.9900000095367432,0.018874699249863625,0.018874699249863625,1e-04,0.9271110892295837,1.2067188024520874,1.2067188024520874
865,0.9959999918937683,0.014114810153841972,0.014114810153841972,1e-04,0.9277777671813965,1.2090078592300415,1.2090078592300415
866,0.9959999918937683,0.016264930367469788,0.016264930367469788,1e-04,0.9277777671813965,1.2107349634170532,1.2107349634170532
867,0.9940000176429749,0.014157758094370365,0.014157758094370365,1e-04,0.9284444451332092,1.2125394344329834,1.2125394344329834
868,0.9980000257492065,0.009874265640974045,0.009874265640974045,1e-04,0.9295555353164673,1.214598298072815,1.214598298072815
869,0.9900000095367432,0.022767730057239532,0.022767730057239532,1e-04,0.9306666851043701,1.2170227766036987,1.2170227766036987
870,0.9919999837875366,0.02009269967675209,0.02009269967675209,1e-04,0.9306666851043701,1.2221159934997559,1.2221159934997559
871,0.9940000176429749,0.01625991053879261,0.01625991053879261,1e-04,0.9295555353164673,1.2276026010513306,1.2276026010513306
872,0.9900000095367432,0.02395542524755001,0.02395542524755001,1e-04,0.9284444451332092,1.2330093383789062,1.2330093383789062
873,0.9900000095367432,0.03314029425382614,0.03314029425382614,1e-04,0.9279999732971191,1.2385050058364868,1.2385050058364868
874,0.9919999837875366,0.023536311462521553,0.023536311462521553,1e-04,0.9244444370269775,1.2461165189743042,1.2461165189743042
875,0.9940000176429749,0.01569320261478424,0.01569320261478424,1e-04,0.9188888669013977,1.2560367584228516,1.2560367584228516
876,0.9940000176429749,0.017828678712248802,0.017828678712248802,1e-04,0.9202222228050232,1.2576909065246582,1.2576909065246582
877,0.9919999837875366,0.02280973270535469,0.02280973270535469,1e-04,0.9244444370269775,1.2561339139938354,1.2561339139938354
878,0.9900000095367432,0.020946452394127846,0.020946452394127846,1e-04,0.9282222390174866,1.2523763179779053,1.2523763179779053
879,0.9959999918937683,0.016453849151730537,0.016453849151730537,1e-04,0.9322222471237183,1.251521348953247,1.251521348953247
880,0.9940000176429749,0.02626204676926136,0.02626204676926136,1e-04,0.9322222471237183,1.2525298595428467,1.2525298595428467
881,0.9940000176429749,0.01389420684427023,0.01389420684427023,1e-04,0.9351111054420471,1.2535157203674316,1.2535157203674316
882,0.9879999756813049,0.019107654690742493,0.019107654690742493,1e-04,0.9353333115577698,1.2551997900009155,1.2551997900009155
883,0.9959999918937683,0.016292110085487366,0.016292110085487366,1e-04,0.9353333115577698,1.2563064098358154,1.2563064098358154
884,0.9919999837875366,0.027990685775876045,0.027990685775876045,1e-04,0.9344444274902344,1.256894826889038,1.256894826889038
885,0.9879999756813049,0.031163716688752174,0.031163716688752174,1e-04,0.9308888912200928,1.2600743770599365,1.2600743770599365
886,0.9919999837875366,0.016139918938279152,0.016139918938279152,1e-04,0.9255555272102356,1.2671799659729004,1.2671799659729004
887,0.9900000095367432,0.018921654671430588,0.018921654671430588,1e-04,0.9184444546699524,1.2770222425460815,1.2770222425460815
888,0.9959999918937683,0.012158787809312344,0.012158787809312344,1e-04,0.9122222065925598,1.2861895561218262,1.2861895561218262
889,0.9860000014305115,0.02635137178003788,0.02635137178003788,1e-04,0.914222240447998,1.2845654487609863,1.2845654487609863
890,0.9900000095367432,0.021130630746483803,0.021130630746483803,1e-04,0.9182222485542297,1.2811388969421387,1.2811388969421387
891,0.9959999918937683,0.016242586076259613,0.016242586076259613,1e-04,0.9246666431427002,1.2754766941070557,1.2754766941070557
892,0.9879999756813049,0.022510765120387077,0.022510765120387077,1e-04,0.9286666512489319,1.2705721855163574,1.2705721855163574
893,0.9959999918937683,0.01795227639377117,0.01795227639377117,1e-04,0.9326666593551636,1.2700281143188477,1.2700281143188477
894,0.9959999918937683,0.009343280456960201,0.009343280456960201,1e-04,0.9342222213745117,1.2723181247711182,1.2723181247711182
895,0.9900000095367432,0.02386268973350525,0.02386268973350525,1e-04,0.9340000152587891,1.2738335132598877,1.2738335132598877
896,0.9919999837875366,0.0179496668279171,0.0179496668279171,1e-04,0.9331111311912537,1.2741752862930298,1.2741752862930298
897,0.9900000095367432,0.01726258546113968,0.01726258546113968,1e-04,0.9286666512489319,1.2764596939086914,1.2764596939086914
898,0.9940000176429749,0.013543063774704933,0.013543063774704933,1e-04,0.9253333210945129,1.2818742990493774,1.2818742990493774
899,0.9959999918937683,0.012780582532286644,0.012780582532286644,1e-04,0.9200000166893005,1.290309190750122,1.290309190750122
900,0.9940000176429749,0.016583608463406563,0.016583608463406563,1e-04,0.9151111245155334,1.2969611883163452,1.2969611883163452
901,0.9919999837875366,0.019010011106729507,0.019010011106729507,1e-04,0.9126666784286499,1.3013652563095093,1.3013652563095093
902,0.9919999837875366,0.02510942332446575,0.02510942332446575,1e-04,0.9124444723129272,1.3027739524841309,1.3027739524841309
903,0.9919999837875366,0.019923148676753044,0.019923148676753044,1e-04,0.917555570602417,1.2956531047821045,1.2956531047821045
904,0.9919999837875366,0.02020229957997799,0.02020229957997799,1e-04,0.925777792930603,1.285936713218689,1.285936713218689
905,0.9959999918937683,0.01473785936832428,0.01473785936832428,1e-04,0.9293333292007446,1.281766653060913,1.281766653060913
906,0.9940000176429749,0.018430206924676895,0.018430206924676895,1e-04,0.9342222213745117,1.281893253326416,1.281893253326416
907,0.9959999918937683,0.011192279867827892,0.011192279867827892,1e-04,0.9346666932106018,1.2827425003051758,1.2827425003051758
908,0.9900000095367432,0.02094576321542263,0.02094576321542263,1e-04,0.9342222213745117,1.2855453491210938,1.2855453491210938
909,0.9900000095367432,0.024805637076497078,0.024805637076497078,1e-04,0.9311110973358154,1.2864573001861572,1.2864573001861572
910,0.9940000176429749,0.013497794978320599,0.013497794978320599,1e-04,0.9259999990463257,1.2908220291137695,1.2908220291137695
911,0.9900000095367432,0.02410862408578396,0.02410862408578396,1e-04,0.9206666946411133,1.3000634908676147,1.3000634908676147
912,0.9919999837875366,0.02685670182108879,0.02685670182108879,1e-04,0.9148889183998108,1.3076311349868774,1.3076311349868774
913,0.9959999918937683,0.01613277569413185,0.01613277569413185,1e-04,0.9164444208145142,1.3051159381866455,1.3051159381866455
914,0.9980000257492065,0.01676606386899948,0.01676606386899948,1e-04,0.9235555529594421,1.299085259437561,1.299085259437561
915,0.9940000176429749,0.021136432886123657,0.021136432886123657,1e-04,0.9262222051620483,1.2964191436767578,1.2964191436767578
916,0.9919999837875366,0.020625000819563866,0.020625000819563866,1e-04,0.9286666512489319,1.2959785461425781,1.2959785461425781
917,0.9919999837875366,0.014766307547688484,0.014766307547688484,1e-04,0.9300000071525574,1.2953649759292603,1.2953649759292603
918,0.9959999918937683,0.017472056671977043,0.017472056671977043,1e-04,0.9306666851043701,1.2948360443115234,1.2948360443115234
919,0.9940000176429749,0.013544718734920025,0.013544718734920025,1e-04,0.93022221326828,1.2927368879318237,1.2927368879318237
920,0.9940000176429749,0.012256471440196037,0.012256471440196037,1e-04,0.9293333292007446,1.291703701019287,1.291703701019287
921,0.9980000257492065,0.009963417425751686,0.009963417425751686,1e-04,0.9279999732971191,1.2935141324996948,1.2935141324996948
922,0.9940000176429749,0.011833575554192066,0.011833575554192066,1e-04,0.9271110892295837,1.2962782382965088,1.2962782382965088
923,0.9980000257492065,0.011318217031657696,0.011318217031657696,1e-04,0.9255555272102356,1.2988789081573486,1.2988789081573486
924,1.0,0.012208332307636738,0.012208332307636738,1e-04,0.9262222051620483,1.2987993955612183,1.2987993955612183
925,0.9919999837875366,0.027408050373196602,0.027408050373196602,1e-04,0.9271110892295837,1.2974873781204224,1.2974873781204224
926,0.9959999918937683,0.016277534887194633,0.016277534887194633,1e-04,0.9297778010368347,1.295462727546692,1.295462727546692
927,0.9980000257492065,0.016667921096086502,0.016667921096086502,1e-04,0.9297778010368347,1.2939252853393555,1.2939252853393555
928,0.9919999837875366,0.01765982061624527,0.01765982061624527,1e-04,0.9295555353164673,1.2936773300170898,1.2936773300170898
929,0.9980000257492065,0.015038219280540943,0.015038219280540943,1e-04,0.93022221326828,1.2926864624023438,1.2926864624023438
930,0.9919999837875366,0.02196008898317814,0.02196008898317814,1e-04,0.9300000071525574,1.292475700378418,1.292475700378418
931,0.9980000257492065,0.012822749093174934,0.012822749093174934,1e-04,0.9300000071525574,1.2926979064941406,1.2926979064941406
932,0.9919999837875366,0.017754893749952316,0.017754893749952316,1e-04,0.9295555353164673,1.2933183908462524,1.2933183908462524
933,0.9959999918937683,0.01594526693224907,0.01594526693224907,1e-04,0.9284444451332092,1.2941465377807617,1.2941465377807617
934,0.9980000257492065,0.011309640482068062,0.011309640482068062,1e-04,0.9266666769981384,1.2967129945755005,1.2967129945755005
935,0.9980000257492065,0.013454961590468884,0.013454961590468884,1e-04,0.9240000247955322,1.2993488311767578,1.2993488311767578
936,0.9959999918937683,0.015989292412996292,0.015989292412996292,1e-04,0.9217777848243713,1.303207516670227,1.303207516670227
937,0.9980000257492065,0.010170549154281616,0.010170549154281616,1e-04,0.9213333129882812,1.3057808876037598,1.3057808876037598
938,0.9980000257492065,0.007228766568005085,0.007228766568005085,1e-04,0.9213333129882812,1.3064323663711548,1.3064323663711548
939,0.9940000176429749,0.014556528069078922,0.014556528069078922,1e-04,0.9228888750076294,1.3025635480880737,1.3025635480880737
940,0.9980000257492065,0.010530674830079079,0.010530674830079079,1e-04,0.9271110892295837,1.2991955280303955,1.2991955280303955
941,0.9919999837875366,0.011351671069860458,0.011351671069860458,1e-04,0.929111123085022,1.2982486486434937,1.2982486486434937
942,0.9919999837875366,0.022584354504942894,0.022584354504942894,1e-04,0.9284444451332092,1.2994177341461182,1.2994177341461182
943,0.9940000176429749,0.018724892288446426,0.018724892288446426,1e-04,0.9271110892295837,1.3006638288497925,1.3006638288497925
944,0.9900000095367432,0.022203192114830017,0.022203192114830017,1e-04,0.9248889088630676,1.3041497468948364,1.3041497468948364
945,0.9919999837875366,0.019649026915431023,0.019649026915431023,1e-04,0.9242222309112549,1.3061866760253906,1.3061866760253906
946,0.9959999918937683,0.015587540343403816,0.015587540343403816,1e-04,0.9235555529594421,1.308017611503601,1.308017611503601
947,0.9959999918937683,0.015360773541033268,0.015360773541033268,1e-04,0.9262222051620483,1.306849479675293,1.306849479675293
