epoch,accuracy,categorical_crossentropy,loss,lr,val_accuracy,val_categorical_crossentropy,val_loss
0,0.6100000143051147,0.687237024307251,0.687237024307251,0.001,0.6399999856948853,0.632577657699585,0.632577657699585
1,0.6899999976158142,0.5966389179229736,0.5966389179229736,0.001,0.6399999856948853,0.5873674154281616,0.5873674154281616
2,0.6899999976158142,0.5481744408607483,0.5481744408607483,0.001,0.6499999761581421,0.5432413220405579,0.5432413220405579
3,0.7099999785423279,0.5012308359146118,0.5012308359146118,0.001,0.7799999713897705,0.5058296322822571,0.5058296322822571
4,0.800000011920929,0.45882800221443176,0.45882800221443176,0.001,0.7699999809265137,0.46919962763786316,0.46919962763786316
5,0.800000011920929,0.4188630282878876,0.4188630282878876,0.001,0.7400000095367432,0.45021170377731323,0.45021170377731323
6,0.7900000214576721,0.3805461823940277,0.3805461823940277,0.001,0.7400000095367432,0.45896437764167786,0.45896437764167786
7,0.800000011920929,0.3743499517440796,0.3743499517440796,0.001,0.7400000095367432,0.475884348154068,0.475884348154068
8,0.8199999928474426,0.3533802032470703,0.3533802032470703,0.001,0.7300000190734863,0.48136746883392334,0.48136746883392334
9,0.8299999833106995,0.35065069794654846,0.35065069794654846,0.001,0.7400000095367432,0.47274795174598694,0.47274795174598694
10,0.8199999928474426,0.3306225538253784,0.3306225538253784,0.001,0.7699999809265137,0.4543512761592865,0.4543512761592865
11,0.8399999737739563,0.30266013741493225,0.30266013741493225,0.001,0.7900000214576721,0.435068279504776,0.435068279504776
12,0.8399999737739563,0.30955246090888977,0.30955246090888977,0.001,0.800000011920929,0.4170858860015869,0.4170858860015869
13,0.8500000238418579,0.27952176332473755,0.27952176332473755,0.001,0.8199999928474426,0.40280288457870483,0.40280288457870483
14,0.8700000047683716,0.26688727736473083,0.26688727736473083,0.001,0.8199999928474426,0.3915504813194275,0.3915504813194275
15,0.8700000047683716,0.2758563756942749,0.2758563756942749,0.001,0.8199999928474426,0.3822776675224304,0.3822776675224304
16,0.8999999761581421,0.24588000774383545,0.24588000774383545,0.001,0.8500000238418579,0.3796822726726532,0.3796822726726532
17,0.8899999856948853,0.24958571791648865,0.24958571791648865,0.001,0.8399999737739563,0.38520577549934387,0.38520577549934387
18,0.8700000047683716,0.26475629210472107,0.26475629210472107,0.001,0.8600000143051147,0.39001426100730896,0.39001426100730896
19,0.8899999856948853,0.26315781474113464,0.26315781474113464,0.001,0.8500000238418579,0.39943718910217285,0.39943718910217285
20,0.8799999952316284,0.21035921573638916,0.21035921573638916,0.001,0.8399999737739563,0.40906602144241333,0.40906602144241333
21,0.8999999761581421,0.23187784850597382,0.23187784850597382,0.001,0.8100000023841858,0.41901251673698425,0.41901251673698425
22,0.9100000262260437,0.21340791881084442,0.21340791881084442,0.001,0.8500000238418579,0.4090059995651245,0.4090059995651245
23,0.8799999952316284,0.2029654085636139,0.2029654085636139,0.001,0.8399999737739563,0.403533935546875,0.403533935546875
24,0.9100000262260437,0.22667333483695984,0.22667333483695984,0.001,0.8399999737739563,0.4035140872001648,0.4035140872001648
25,0.9100000262260437,0.1887633502483368,0.1887633502483368,0.001,0.8500000238418579,0.4013253450393677,0.4013253450393677
26,0.8899999856948853,0.20200319588184357,0.20200319588184357,0.001,0.8299999833106995,0.4116747975349426,0.4116747975349426
27,0.949999988079071,0.16450050473213196,0.16450050473213196,0.001,0.8399999737739563,0.4183269143104553,0.4183269143104553
28,0.8899999856948853,0.21707355976104736,0.21707355976104736,0.001,0.8500000238418579,0.41381457448005676,0.41381457448005676
29,0.9300000071525574,0.15455973148345947,0.15455973148345947,0.001,0.8600000143051147,0.4155576825141907,0.4155576825141907
30,0.9300000071525574,0.14615973830223083,0.14615973830223083,0.001,0.8399999737739563,0.42470821738243103,0.42470821738243103
31,0.9300000071525574,0.1481248438358307,0.1481248438358307,0.001,0.8299999833106995,0.4421635568141937,0.4421635568141937
32,0.949999988079071,0.13421176373958588,0.13421176373958588,0.001,0.8399999737739563,0.4470563530921936,0.4470563530921936
33,0.9300000071525574,0.15287010371685028,0.15287010371685028,0.001,0.8500000238418579,0.4336213767528534,0.4336213767528534
34,0.9399999976158142,0.1364736109972,0.1364736109972,0.001,0.8399999737739563,0.41246750950813293,0.41246750950813293
35,0.9300000071525574,0.14693325757980347,0.14693325757980347,0.001,0.8700000047683716,0.42383942008018494,0.42383942008018494
36,0.9100000262260437,0.16725324094295502,0.16725324094295502,0.001,0.8500000238418579,0.40509819984436035,0.40509819984436035
37,0.9800000190734863,0.08030209690332413,0.08030209690332413,0.001,0.8399999737739563,0.4327503442764282,0.4327503442764282
38,0.9399999976158142,0.13569067418575287,0.13569067418575287,0.001,0.8399999737739563,0.4202018976211548,0.4202018976211548
39,0.949999988079071,0.12969420850276947,0.12969420850276947,0.001,0.8600000143051147,0.4520877003669739,0.4520877003669739
40,0.949999988079071,0.09690114110708237,0.09690114110708237,0.001,0.8700000047683716,0.4803987443447113,0.4803987443447113
41,0.8999999761581421,0.1772867739200592,0.1772867739200592,0.001,0.8700000047683716,0.4242989420890808,0.4242989420890808
42,0.9700000286102295,0.07256197929382324,0.07256197929382324,0.001,0.8199999928474426,0.47870296239852905,0.47870296239852905
43,0.9399999976158142,0.15890251100063324,0.15890251100063324,0.001,0.8199999928474426,0.4570503532886505,0.4570503532886505
44,0.9300000071525574,0.16323202848434448,0.16323202848434448,0.001,0.8600000143051147,0.40582606196403503,0.40582606196403503
45,0.949999988079071,0.15078496932983398,0.15078496932983398,0.001,0.8700000047683716,0.5221218466758728,0.5221218466758728
46,0.8899999856948853,0.2361685335636139,0.2361685335636139,0.001,0.8799999952316284,0.4722624719142914,0.4722624719142914
47,0.9300000071525574,0.1249026283621788,0.1249026283621788,0.001,0.8799999952316284,0.39391040802001953,0.39391040802001953
48,0.9599999785423279,0.12377186864614487,0.12377186864614487,0.001,0.8399999737739563,0.44706958532333374,0.44706958532333374
49,0.949999988079071,0.11767963320016861,0.11767963320016861,0.001,0.8199999928474426,0.49818098545074463,0.49818098545074463
50,0.9100000262260437,0.15733827650547028,0.15733827650547028,0.001,0.8500000238418579,0.4505675435066223,0.4505675435066223
51,0.9100000262260437,0.16600273549556732,0.16600273549556732,0.001,0.8799999952316284,0.438517302274704,0.438517302274704
52,0.9399999976158142,0.15226607024669647,0.15226607024669647,0.001,0.8899999856948853,0.4414229989051819,0.4414229989051819
53,0.9599999785423279,0.11215221136808395,0.11215221136808395,0.001,0.8799999952316284,0.42088422179222107,0.42088422179222107
54,0.9800000190734863,0.10883110016584396,0.10883110016584396,0.001,0.8500000238418579,0.4153842031955719,0.4153842031955719
55,0.9599999785423279,0.0811871886253357,0.0811871886253357,0.001,0.8500000238418579,0.4350413382053375,0.4350413382053375
56,0.9300000071525574,0.17625746130943298,0.17625746130943298,0.001,0.8500000238418579,0.4158153533935547,0.4158153533935547
57,0.9599999785423279,0.11496669054031372,0.11496669054031372,0.001,0.8799999952316284,0.3941265046596527,0.3941265046596527
58,0.9800000190734863,0.06881322711706161,0.06881322711706161,0.001,0.8799999952316284,0.41280218958854675,0.41280218958854675
59,0.9599999785423279,0.10173103213310242,0.10173103213310242,0.001,0.8799999952316284,0.4210386276245117,0.4210386276245117
60,0.9599999785423279,0.11676117777824402,0.11676117777824402,0.001,0.8799999952316284,0.40351638197898865,0.40351638197898865
61,0.9599999785423279,0.09771693497896194,0.09771693497896194,0.001,0.8600000143051147,0.3894607126712799,0.3894607126712799
62,0.9599999785423279,0.1277892291545868,0.1277892291545868,0.001,0.8700000047683716,0.4093969762325287,0.4093969762325287
63,0.9800000190734863,0.0889764055609703,0.0889764055609703,0.001,0.8700000047683716,0.4121222198009491,0.4121222198009491
64,0.9599999785423279,0.11832387745380402,0.11832387745380402,0.001,0.8799999952316284,0.4112818241119385,0.4112818241119385
65,0.9800000190734863,0.07324300706386566,0.07324300706386566,0.001,0.8700000047683716,0.42709729075431824,0.42709729075431824
66,0.9900000095367432,0.0623614676296711,0.0623614676296711,0.001,0.8799999952316284,0.44572684168815613,0.44572684168815613
67,0.9900000095367432,0.08342927694320679,0.08342927694320679,0.0005,0.8600000143051147,0.44582611322402954,0.44582611322402954
68,0.949999988079071,0.0806129202246666,0.0806129202246666,0.0005,0.8500000238418579,0.44711625576019287,0.44711625576019287
69,0.9700000286102295,0.056641045957803726,0.056641045957803726,0.0005,0.8700000047683716,0.4493595361709595,0.4493595361709595
70,0.9599999785423279,0.10111402720212936,0.10111402720212936,0.0005,0.8600000143051147,0.4502333104610443,0.4502333104610443
71,0.949999988079071,0.09213267266750336,0.09213267266750336,0.0005,0.8600000143051147,0.4522746801376343,0.4522746801376343
72,0.9399999976158142,0.12014902383089066,0.12014902383089066,0.0005,0.8600000143051147,0.4511665999889374,0.4511665999889374
73,0.9399999976158142,0.09358330816030502,0.09358330816030502,0.0005,0.8600000143051147,0.4456862509250641,0.4456862509250641
74,0.9599999785423279,0.07247444987297058,0.07247444987297058,0.0005,0.8600000143051147,0.4419665038585663,0.4419665038585663
75,0.9800000190734863,0.0745784118771553,0.0745784118771553,0.0005,0.8700000047683716,0.44492486119270325,0.44492486119270325
76,0.9800000190734863,0.06096135079860687,0.06096135079860687,0.0005,0.8600000143051147,0.44550400972366333,0.44550400972366333
77,0.9599999785423279,0.08573514223098755,0.08573514223098755,0.0005,0.8700000047683716,0.43981802463531494,0.43981802463531494
78,0.9700000286102295,0.07707870751619339,0.07707870751619339,0.0005,0.8799999952316284,0.4417615830898285,0.4417615830898285
79,0.949999988079071,0.11103571951389313,0.11103571951389313,0.0005,0.8799999952316284,0.4440794289112091,0.4440794289112091
80,0.9599999785423279,0.08156542479991913,0.08156542479991913,0.0005,0.8799999952316284,0.4324721395969391,0.4324721395969391
81,0.9900000095367432,0.048776522278785706,0.048776522278785706,0.0005,0.8799999952316284,0.4293748736381531,0.4293748736381531
82,0.9700000286102295,0.05099683254957199,0.05099683254957199,0.0005,0.8899999856948853,0.4292444884777069,0.4292444884777069
83,0.9800000190734863,0.049882493913173676,0.049882493913173676,0.0005,0.8899999856948853,0.4304625391960144,0.4304625391960144
84,0.9599999785423279,0.07445565611124039,0.07445565611124039,0.0005,0.8799999952316284,0.4335367679595947,0.4335367679595947
85,0.9599999785423279,0.07085291296243668,0.07085291296243668,0.0005,0.8700000047683716,0.43895846605300903,0.43895846605300903
86,0.9599999785423279,0.06854090839624405,0.06854090839624405,0.0005,0.8700000047683716,0.4459212124347687,0.4459212124347687
87,0.9800000190734863,0.045194439589977264,0.045194439589977264,0.0005,0.8700000047683716,0.45329180359840393,0.45329180359840393
88,0.9800000190734863,0.05066278949379921,0.05066278949379921,0.0005,0.8700000047683716,0.45967257022857666,0.45967257022857666
89,0.9800000190734863,0.0635996088385582,0.0635996088385582,0.0005,0.8700000047683716,0.4667128026485443,0.4667128026485443
90,0.9399999976158142,0.09697812050580978,0.09697812050580978,0.0005,0.8600000143051147,0.47724950313568115,0.47724950313568115
91,0.9900000095367432,0.05590588599443436,0.05590588599443436,0.0005,0.8600000143051147,0.4858582615852356,0.4858582615852356
92,0.9800000190734863,0.052072953432798386,0.052072953432798386,0.0005,0.8600000143051147,0.4933364987373352,0.4933364987373352
93,0.9800000190734863,0.05816243216395378,0.05816243216395378,0.0005,0.8600000143051147,0.5017992258071899,0.5017992258071899
94,0.9800000190734863,0.09006237238645554,0.09006237238645554,0.0005,0.8600000143051147,0.5112391710281372,0.5112391710281372
95,0.9800000190734863,0.052590593695640564,0.052590593695640564,0.0005,0.8600000143051147,0.5204432010650635,0.5204432010650635
96,0.9700000286102295,0.06471894681453705,0.06471894681453705,0.0005,0.8500000238418579,0.5218441486358643,0.5218441486358643
97,0.9900000095367432,0.042624954134225845,0.042624954134225845,0.0005,0.8500000238418579,0.5244126319885254,0.5244126319885254
98,1.0,0.022125232964754105,0.022125232964754105,0.0005,0.8399999737739563,0.527050793170929,0.527050793170929
99,0.9700000286102295,0.06540817022323608,0.06540817022323608,0.0005,0.8399999737739563,0.5323352813720703,0.5323352813720703
100,0.949999988079071,0.09798775613307953,0.09798775613307953,0.0005,0.8399999737739563,0.5247117877006531,0.5247117877006531
101,0.9700000286102295,0.07000931352376938,0.07000931352376938,0.0005,0.8399999737739563,0.5160261392593384,0.5160261392593384
102,0.9900000095367432,0.04236650466918945,0.04236650466918945,0.0005,0.8500000238418579,0.5226266980171204,0.5226266980171204
103,0.9800000190734863,0.035155028104782104,0.035155028104782104,0.0005,0.8700000047683716,0.5310302972793579,0.5310302972793579
104,0.9599999785423279,0.08766160160303116,0.08766160160303116,0.0005,0.8500000238418579,0.5176340341567993,0.5176340341567993
105,0.9399999976158142,0.1373593956232071,0.1373593956232071,0.0005,0.8399999737739563,0.5174583792686462,0.5174583792686462
106,0.9700000286102295,0.06413641571998596,0.06413641571998596,0.0005,0.8500000238418579,0.5216735601425171,0.5216735601425171
107,1.0,0.02447928488254547,0.02447928488254547,0.0005,0.8500000238418579,0.5331737399101257,0.5331737399101257
108,1.0,0.019663292914628983,0.019663292914628983,0.0005,0.8500000238418579,0.5359948873519897,0.5359948873519897
109,0.9700000286102295,0.07128249108791351,0.07128249108791351,0.0005,0.8399999737739563,0.5271819829940796,0.5271819829940796
110,0.9599999785423279,0.05758637562394142,0.05758637562394142,0.0005,0.8600000143051147,0.5149189829826355,0.5149189829826355
111,0.9800000190734863,0.05189255625009537,0.05189255625009537,0.0005,0.8799999952316284,0.5242170095443726,0.5242170095443726
112,0.9800000190734863,0.04835176095366478,0.04835176095366478,0.0005,0.8700000047683716,0.5230959057807922,0.5230959057807922
113,0.9800000190734863,0.04030836746096611,0.04030836746096611,0.0005,0.8700000047683716,0.5229587554931641,0.5229587554931641
114,0.9800000190734863,0.07088395953178406,0.07088395953178406,0.0005,0.8600000143051147,0.5167394876480103,0.5167394876480103
115,0.9900000095367432,0.04776548966765404,0.04776548966765404,0.0005,0.8500000238418579,0.5395494699478149,0.5395494699478149
116,0.9599999785423279,0.12397516518831253,0.12397516518831253,0.0005,0.8500000238418579,0.5410516262054443,0.5410516262054443
117,0.9599999785423279,0.12590739130973816,0.12590739130973816,0.00025,0.8700000047683716,0.5248574614524841,0.5248574614524841
118,0.9900000095367432,0.028937561437487602,0.028937561437487602,0.00025,0.8700000047683716,0.5160751938819885,0.5160751938819885
119,0.9900000095367432,0.030819689854979515,0.030819689854979515,0.00025,0.8700000047683716,0.5133208632469177,0.5133208632469177
120,0.9800000190734863,0.04374441131949425,0.04374441131949425,0.00025,0.8600000143051147,0.5109632015228271,0.5109632015228271
121,0.949999988079071,0.10482089966535568,0.10482089966535568,0.00025,0.8700000047683716,0.5128743648529053,0.5128743648529053
122,0.9700000286102295,0.062334831804037094,0.062334831804037094,0.00025,0.8600000143051147,0.5169361233711243,0.5169361233711243
123,0.9700000286102295,0.07679542154073715,0.07679542154073715,0.00025,0.8700000047683716,0.5215517282485962,0.5215517282485962
124,0.9800000190734863,0.058001719415187836,0.058001719415187836,0.00025,0.8600000143051147,0.5257121920585632,0.5257121920585632
125,0.9599999785423279,0.06818195432424545,0.06818195432424545,0.00025,0.8600000143051147,0.5268287062644958,0.5268287062644958
126,0.9900000095367432,0.035344503819942474,0.035344503819942474,0.00025,0.8399999737739563,0.5276034474372864,0.5276034474372864
127,0.9900000095367432,0.029182102531194687,0.029182102531194687,0.00025,0.8500000238418579,0.5300132632255554,0.5300132632255554
128,0.9800000190734863,0.09053730219602585,0.09053730219602585,0.00025,0.8600000143051147,0.5383222103118896,0.5383222103118896
129,0.9800000190734863,0.07873101532459259,0.07873101532459259,0.00025,0.8700000047683716,0.5528449416160583,0.5528449416160583
130,0.9700000286102295,0.06771212071180344,0.06771212071180344,0.00025,0.8700000047683716,0.5545254349708557,0.5545254349708557
131,0.9800000190734863,0.08161521703004837,0.08161521703004837,0.00025,0.8700000047683716,0.5505180954933167,0.5505180954933167
132,0.9700000286102295,0.05545399338006973,0.05545399338006973,0.00025,0.8600000143051147,0.5451566576957703,0.5451566576957703
133,0.9800000190734863,0.043093666434288025,0.043093666434288025,0.00025,0.8500000238418579,0.5419450402259827,0.5419450402259827
134,0.9800000190734863,0.05290668457746506,0.05290668457746506,0.00025,0.8500000238418579,0.542996346950531,0.542996346950531
135,0.949999988079071,0.09027841687202454,0.09027841687202454,0.00025,0.8399999737739563,0.5442182421684265,0.5442182421684265
136,0.9700000286102295,0.08196896314620972,0.08196896314620972,0.00025,0.8500000238418579,0.5453261137008667,0.5453261137008667
137,0.9900000095367432,0.0270394254475832,0.0270394254475832,0.00025,0.8500000238418579,0.5494915246963501,0.5494915246963501
138,0.9800000190734863,0.03965454548597336,0.03965454548597336,0.00025,0.8500000238418579,0.5541911721229553,0.5541911721229553
139,0.949999988079071,0.06840669363737106,0.06840669363737106,0.00025,0.8500000238418579,0.5603322386741638,0.5603322386741638
140,0.9800000190734863,0.05037041753530502,0.05037041753530502,0.00025,0.8500000238418579,0.565463662147522,0.565463662147522
141,0.949999988079071,0.14269527792930603,0.14269527792930603,0.00025,0.8500000238418579,0.5637909173965454,0.5637909173965454
142,0.9700000286102295,0.044688768684864044,0.044688768684864044,0.00025,0.8500000238418579,0.5606334805488586,0.5606334805488586
143,0.9599999785423279,0.06610191613435745,0.06610191613435745,0.00025,0.8500000238418579,0.5610721111297607,0.5610721111297607
144,0.9900000095367432,0.03694048523902893,0.03694048523902893,0.00025,0.8600000143051147,0.5615761280059814,0.5615761280059814
145,0.9900000095367432,0.049364492297172546,0.049364492297172546,0.00025,0.8600000143051147,0.5607547163963318,0.5607547163963318
146,0.9700000286102295,0.07113436609506607,0.07113436609506607,0.00025,0.8600000143051147,0.5596438050270081,0.5596438050270081
147,0.9800000190734863,0.03461967036128044,0.03461967036128044,0.00025,0.8500000238418579,0.5604890584945679,0.5604890584945679
148,0.9800000190734863,0.0702580139040947,0.0702580139040947,0.00025,0.8500000238418579,0.5613071322441101,0.5613071322441101
149,1.0,0.02306615561246872,0.02306615561246872,0.00025,0.8500000238418579,0.5615769028663635,0.5615769028663635
150,0.9800000190734863,0.06406152248382568,0.06406152248382568,0.00025,0.8600000143051147,0.5586815476417542,0.5586815476417542
151,0.9800000190734863,0.04939238727092743,0.04939238727092743,0.00025,0.8600000143051147,0.5569164156913757,0.5569164156913757
152,0.9900000095367432,0.05465368926525116,0.05465368926525116,0.00025,0.8399999737739563,0.5645986795425415,0.5645986795425415
153,0.9700000286102295,0.060822244733572006,0.060822244733572006,0.00025,0.8500000238418579,0.5751060843467712,0.5751060843467712
154,0.9900000095367432,0.03904237225651741,0.03904237225651741,0.00025,0.8399999737739563,0.5851660966873169,0.5851660966873169
155,0.9700000286102295,0.07040916383266449,0.07040916383266449,0.00025,0.8500000238418579,0.5807357430458069,0.5807357430458069
156,0.9700000286102295,0.06435095518827438,0.06435095518827438,0.00025,0.8399999737739563,0.5716722011566162,0.5716722011566162
157,0.9900000095367432,0.025701215490698814,0.025701215490698814,0.00025,0.8600000143051147,0.5712751746177673,0.5712751746177673
158,0.9800000190734863,0.0504092276096344,0.0504092276096344,0.00025,0.8500000238418579,0.5763193368911743,0.5763193368911743
159,0.9800000190734863,0.04852805286645889,0.04852805286645889,0.00025,0.8500000238418579,0.5888688564300537,0.5888688564300537
160,0.9700000286102295,0.13123810291290283,0.13123810291290283,0.00025,0.8600000143051147,0.5944355130195618,0.5944355130195618
161,1.0,0.022605273872613907,0.022605273872613907,0.00025,0.8500000238418579,0.5962916016578674,0.5962916016578674
162,1.0,0.03291688859462738,0.03291688859462738,0.00025,0.8500000238418579,0.5924477577209473,0.5924477577209473
163,0.9900000095367432,0.05176118016242981,0.05176118016242981,0.00025,0.8500000238418579,0.5918459296226501,0.5918459296226501
164,0.9900000095367432,0.03191853314638138,0.03191853314638138,0.00025,0.8600000143051147,0.5941845178604126,0.5941845178604126
165,1.0,0.01470111683011055,0.01470111683011055,0.00025,0.8500000238418579,0.5984197854995728,0.5984197854995728
166,0.9700000286102295,0.07484447211027145,0.07484447211027145,0.00025,0.8500000238418579,0.6012346148490906,0.6012346148490906
167,0.9800000190734863,0.05191711336374283,0.05191711336374283,0.000125,0.8500000238418579,0.6018733382225037,0.6018733382225037
168,1.0,0.029421722516417503,0.029421722516417503,0.000125,0.8500000238418579,0.6027342081069946,0.6027342081069946
169,0.9800000190734863,0.048974499106407166,0.048974499106407166,0.000125,0.8500000238418579,0.6025792360305786,0.6025792360305786
170,0.9599999785423279,0.08045747876167297,0.08045747876167297,0.000125,0.8500000238418579,0.6018751263618469,0.6018751263618469
171,0.9800000190734863,0.0440099760890007,0.0440099760890007,0.000125,0.8500000238418579,0.6006362438201904,0.6006362438201904
172,0.9399999976158142,0.12760764360427856,0.12760764360427856,0.000125,0.8500000238418579,0.5998429656028748,0.5998429656028748
173,0.9900000095367432,0.02381003089249134,0.02381003089249134,0.000125,0.8500000238418579,0.5995710492134094,0.5995710492134094
174,0.9900000095367432,0.03980325162410736,0.03980325162410736,0.000125,0.8500000238418579,0.599631667137146,0.599631667137146
175,0.9800000190734863,0.04854988679289818,0.04854988679289818,0.000125,0.8500000238418579,0.5992477536201477,0.5992477536201477
176,0.9700000286102295,0.08017659187316895,0.08017659187316895,0.000125,0.8500000238418579,0.5980665683746338,0.5980665683746338
177,0.9800000190734863,0.05756203085184097,0.05756203085184097,0.000125,0.8399999737739563,0.5984974503517151,0.5984974503517151
178,0.9900000095367432,0.04572886601090431,0.04572886601090431,0.000125,0.8399999737739563,0.5981233716011047,0.5981233716011047
179,0.9700000286102295,0.06934113800525665,0.06934113800525665,0.000125,0.8399999737739563,0.5947627425193787,0.5947627425193787
180,0.9800000190734863,0.06337497383356094,0.06337497383356094,0.000125,0.8500000238418579,0.5897754430770874,0.5897754430770874
181,0.9599999785423279,0.09321638196706772,0.09321638196706772,0.000125,0.8600000143051147,0.5850193500518799,0.5850193500518799
182,0.9800000190734863,0.04216238111257553,0.04216238111257553,0.000125,0.8500000238418579,0.5818334221839905,0.5818334221839905
183,0.9800000190734863,0.07645859569311142,0.07645859569311142,0.000125,0.8500000238418579,0.5814489126205444,0.5814489126205444
184,0.9700000286102295,0.04736651852726936,0.04736651852726936,0.000125,0.8500000238418579,0.583549439907074,0.583549439907074
185,0.9700000286102295,0.05685564875602722,0.05685564875602722,0.000125,0.8600000143051147,0.588996946811676,0.588996946811676
186,1.0,0.03846561536192894,0.03846561536192894,0.000125,0.8600000143051147,0.594531238079071,0.594531238079071
187,0.9599999785423279,0.07647174596786499,0.07647174596786499,0.000125,0.8600000143051147,0.5929270386695862,0.5929270386695862
188,0.9700000286102295,0.08618931472301483,0.08618931472301483,0.000125,0.8500000238418579,0.5854167342185974,0.5854167342185974
189,0.9900000095367432,0.024116629734635353,0.024116629734635353,0.000125,0.8500000238418579,0.5793236494064331,0.5793236494064331
190,0.9599999785423279,0.08158332854509354,0.08158332854509354,0.000125,0.8500000238418579,0.5748875141143799,0.5748875141143799
191,0.9800000190734863,0.07113387435674667,0.07113387435674667,0.000125,0.8500000238418579,0.5714608430862427,0.5714608430862427
192,0.9900000095367432,0.04272948578000069,0.04272948578000069,0.000125,0.8600000143051147,0.5702760219573975,0.5702760219573975
193,0.9900000095367432,0.017357604578137398,0.017357604578137398,0.000125,0.8600000143051147,0.5702655911445618,0.5702655911445618
194,0.9700000286102295,0.04473907873034477,0.04473907873034477,0.000125,0.8500000238418579,0.5713178515434265,0.5713178515434265
195,0.9800000190734863,0.0338810496032238,0.0338810496032238,0.000125,0.8500000238418579,0.5747308135032654,0.5747308135032654
196,1.0,0.022774647921323776,0.022774647921323776,0.000125,0.8399999737739563,0.5780118703842163,0.5780118703842163
197,0.9800000190734863,0.05170874297618866,0.05170874297618866,0.000125,0.8399999737739563,0.5783108472824097,0.5783108472824097
198,0.9700000286102295,0.06188949942588806,0.06188949942588806,0.000125,0.8500000238418579,0.5734619498252869,0.5734619498252869
199,0.9700000286102295,0.05696134641766548,0.05696134641766548,0.000125,0.8500000238418579,0.5698009729385376,0.5698009729385376
200,0.9599999785423279,0.07246534526348114,0.07246534526348114,0.000125,0.8600000143051147,0.5671090483665466,0.5671090483665466
201,0.9900000095367432,0.05084078758955002,0.05084078758955002,0.000125,0.8600000143051147,0.5689755082130432,0.5689755082130432
202,0.9800000190734863,0.06106972321867943,0.06106972321867943,0.000125,0.8500000238418579,0.5747896432876587,0.5747896432876587
203,0.9800000190734863,0.031248407438397408,0.031248407438397408,0.000125,0.8500000238418579,0.5816957950592041,0.5816957950592041
204,0.9900000095367432,0.03207237645983696,0.03207237645983696,0.000125,0.8600000143051147,0.5882766842842102,0.5882766842842102
205,0.9800000190734863,0.06343770027160645,0.06343770027160645,0.000125,0.8600000143051147,0.5930283069610596,0.5930283069610596
206,0.9900000095367432,0.05616574361920357,0.05616574361920357,0.000125,0.8600000143051147,0.592973530292511,0.592973530292511
207,0.9900000095367432,0.033891040831804276,0.033891040831804276,0.000125,0.8600000143051147,0.5913133025169373,0.5913133025169373
208,0.9700000286102295,0.05127900093793869,0.05127900093793869,0.000125,0.8600000143051147,0.5911097526550293,0.5911097526550293
209,0.9900000095367432,0.02587786130607128,0.02587786130607128,0.000125,0.8500000238418579,0.5906920433044434,0.5906920433044434
210,0.9800000190734863,0.05778210610151291,0.05778210610151291,0.000125,0.8500000238418579,0.5890185236930847,0.5890185236930847
211,0.9900000095367432,0.030035359784960747,0.030035359784960747,0.000125,0.8600000143051147,0.5899038314819336,0.5899038314819336
212,0.9700000286102295,0.0661635473370552,0.0661635473370552,0.000125,0.8600000143051147,0.5944246649742126,0.5944246649742126
213,0.949999988079071,0.11001324653625488,0.11001324653625488,0.000125,0.8500000238418579,0.6001209616661072,0.6001209616661072
214,0.9800000190734863,0.05082397535443306,0.05082397535443306,0.000125,0.8299999833106995,0.6075253486633301,0.6075253486633301
215,0.9900000095367432,0.021901743486523628,0.021901743486523628,0.000125,0.8399999737739563,0.6143144965171814,0.6143144965171814
216,0.9700000286102295,0.06429055333137512,0.06429055333137512,0.000125,0.8299999833106995,0.6130295991897583,0.6130295991897583
217,0.9599999785423279,0.0927339717745781,0.0927339717745781,1e-04,0.8399999737739563,0.6083881855010986,0.6083881855010986
218,0.9700000286102295,0.056040480732917786,0.056040480732917786,1e-04,0.8500000238418579,0.6026360392570496,0.6026360392570496
219,0.9800000190734863,0.03831300884485245,0.03831300884485245,1e-04,0.8600000143051147,0.5984106659889221,0.5984106659889221
220,0.9700000286102295,0.06874262541532516,0.06874262541532516,1e-04,0.8600000143051147,0.5967045426368713,0.5967045426368713
221,0.9800000190734863,0.048065848648548126,0.048065848648548126,1e-04,0.8500000238418579,0.5969237089157104,0.5969237089157104
222,0.9800000190734863,0.041210390627384186,0.041210390627384186,1e-04,0.8500000238418579,0.5985400676727295,0.5985400676727295
223,0.9700000286102295,0.04589314013719559,0.04589314013719559,1e-04,0.8500000238418579,0.5993341207504272,0.5993341207504272
224,0.9900000095367432,0.04941669851541519,0.04941669851541519,1e-04,0.8500000238418579,0.6009239554405212,0.6009239554405212
225,0.9800000190734863,0.07119467109441757,0.07119467109441757,1e-04,0.8500000238418579,0.6026031374931335,0.6026031374931335
226,0.9800000190734863,0.06448721885681152,0.06448721885681152,1e-04,0.8500000238418579,0.6010549068450928,0.6010549068450928
227,0.9800000190734863,0.06541619449853897,0.06541619449853897,1e-04,0.8500000238418579,0.5969370007514954,0.5969370007514954
228,0.9800000190734863,0.08374939858913422,0.08374939858913422,1e-04,0.8500000238418579,0.5925894379615784,0.5925894379615784
229,0.9700000286102295,0.10177463293075562,0.10177463293075562,1e-04,0.8500000238418579,0.5894874930381775,0.5894874930381775
230,0.9700000286102295,0.09309867769479752,0.09309867769479752,1e-04,0.8600000143051147,0.589400053024292,0.589400053024292
231,0.9599999785423279,0.07511714100837708,0.07511714100837708,1e-04,0.8600000143051147,0.5907661318778992,0.5907661318778992
232,0.9800000190734863,0.04661696031689644,0.04661696031689644,1e-04,0.8500000238418579,0.5933654308319092,0.5933654308319092
233,0.9700000286102295,0.06286296248435974,0.06286296248435974,1e-04,0.8500000238418579,0.594173014163971,0.594173014163971
234,0.9800000190734863,0.07288728654384613,0.07288728654384613,1e-04,0.8600000143051147,0.594211220741272,0.594211220741272
235,0.9800000190734863,0.04757075384259224,0.04757075384259224,1e-04,0.8600000143051147,0.5946577191352844,0.5946577191352844
236,0.9599999785423279,0.08127059042453766,0.08127059042453766,1e-04,0.8500000238418579,0.5968124270439148,0.5968124270439148
237,0.9900000095367432,0.029561717063188553,0.029561717063188553,1e-04,0.8500000238418579,0.6010957360267639,0.6010957360267639
238,0.9900000095367432,0.040996357798576355,0.040996357798576355,1e-04,0.8500000238418579,0.6050189137458801,0.6050189137458801
239,0.9700000286102295,0.08164399117231369,0.08164399117231369,1e-04,0.8500000238418579,0.610519528388977,0.610519528388977
240,0.9700000286102295,0.07152535766363144,0.07152535766363144,1e-04,0.8600000143051147,0.6139643788337708,0.6139643788337708
241,0.9900000095367432,0.048860110342502594,0.048860110342502594,1e-04,0.8600000143051147,0.6173006296157837,0.6173006296157837
242,0.9599999785423279,0.10294835269451141,0.10294835269451141,1e-04,0.8600000143051147,0.617786169052124,0.617786169052124
243,0.9700000286102295,0.07276151329278946,0.07276151329278946,1e-04,0.8600000143051147,0.6175525784492493,0.6175525784492493
244,0.949999988079071,0.07984160631895065,0.07984160631895065,1e-04,0.8500000238418579,0.6134037375450134,0.6134037375450134
245,0.9800000190734863,0.07338753342628479,0.07338753342628479,1e-04,0.8500000238418579,0.6078523397445679,0.6078523397445679
246,0.9800000190734863,0.05739925801753998,0.05739925801753998,1e-04,0.8500000238418579,0.6033030152320862,0.6033030152320862
247,1.0,0.00941922515630722,0.00941922515630722,1e-04,0.8500000238418579,0.6010441780090332,0.6010441780090332
248,0.9900000095367432,0.02000277303159237,0.02000277303159237,1e-04,0.8500000238418579,0.6006944179534912,0.6006944179534912
249,0.9800000190734863,0.06090438365936279,0.06090438365936279,1e-04,0.8600000143051147,0.6018274426460266,0.6018274426460266
250,0.9900000095367432,0.029692139476537704,0.029692139476537704,1e-04,0.8399999737739563,0.6045024394989014,0.6045024394989014
251,1.0,0.028797974810004234,0.028797974810004234,1e-04,0.8399999737739563,0.6078404784202576,0.6078404784202576
252,0.9900000095367432,0.078555166721344,0.078555166721344,1e-04,0.8399999737739563,0.6101389527320862,0.6101389527320862
253,0.9800000190734863,0.09021861851215363,0.09021861851215363,1e-04,0.8399999737739563,0.6082024574279785,0.6082024574279785
254,0.9800000190734863,0.03838862478733063,0.03838862478733063,1e-04,0.8500000238418579,0.6052137017250061,0.6052137017250061
255,0.9700000286102295,0.07398641854524612,0.07398641854524612,1e-04,0.8600000143051147,0.6023157238960266,0.6023157238960266
256,0.9900000095367432,0.042308028787374496,0.042308028787374496,1e-04,0.8600000143051147,0.601611316204071,0.601611316204071
257,0.9900000095367432,0.02705821767449379,0.02705821767449379,1e-04,0.8500000238418579,0.6026329398155212,0.6026329398155212
258,0.9700000286102295,0.07412424683570862,0.07412424683570862,1e-04,0.8500000238418579,0.6044298410415649,0.6044298410415649
259,0.9900000095367432,0.02536761574447155,0.02536761574447155,1e-04,0.8500000238418579,0.6071528792381287,0.6071528792381287
260,1.0,0.011699434369802475,0.011699434369802475,1e-04,0.8500000238418579,0.610302209854126,0.610302209854126
261,0.9800000190734863,0.05840805917978287,0.05840805917978287,1e-04,0.8500000238418579,0.6132152080535889,0.6132152080535889
262,0.9900000095367432,0.02686343714594841,0.02686343714594841,1e-04,0.8500000238418579,0.6147753596305847,0.6147753596305847
263,1.0,0.022870538756251335,0.022870538756251335,1e-04,0.8500000238418579,0.6146364808082581,0.6146364808082581
264,0.949999988079071,0.08836636692285538,0.08836636692285538,1e-04,0.8500000238418579,0.613212525844574,0.613212525844574
265,1.0,0.025980239734053612,0.025980239734053612,1e-04,0.8500000238418579,0.6126677989959717,0.6126677989959717
266,0.9900000095367432,0.03331254795193672,0.03331254795193672,1e-04,0.8500000238418579,0.6132189631462097,0.6132189631462097
267,0.9700000286102295,0.0833342969417572,0.0833342969417572,1e-04,0.8600000143051147,0.6140623092651367,0.6140623092651367
268,0.9900000095367432,0.017258521169424057,0.017258521169424057,1e-04,0.8500000238418579,0.6164719462394714,0.6164719462394714
269,0.9900000095367432,0.027080103754997253,0.027080103754997253,1e-04,0.8399999737739563,0.6195333003997803,0.6195333003997803
270,1.0,0.014171960763633251,0.014171960763633251,1e-04,0.8399999737739563,0.6228916645050049,0.6228916645050049
271,0.9800000190734863,0.04872686415910721,0.04872686415910721,1e-04,0.8399999737739563,0.6252550482749939,0.6252550482749939
272,0.9900000095367432,0.03571987897157669,0.03571987897157669,1e-04,0.8399999737739563,0.6264992356300354,0.6264992356300354
273,0.9900000095367432,0.029354626312851906,0.029354626312851906,1e-04,0.8399999737739563,0.6255017518997192,0.6255017518997192
274,0.9800000190734863,0.07432359457015991,0.07432359457015991,1e-04,0.8399999737739563,0.6227005124092102,0.6227005124092102
275,0.9700000286102295,0.07998041808605194,0.07998041808605194,1e-04,0.8399999737739563,0.6193943619728088,0.6193943619728088
276,0.9700000286102295,0.05416952073574066,0.05416952073574066,1e-04,0.8500000238418579,0.6140475869178772,0.6140475869178772
277,0.9900000095367432,0.024600844830274582,0.024600844830274582,1e-04,0.8600000143051147,0.6107214093208313,0.6107214093208313
278,0.9700000286102295,0.07907867431640625,0.07907867431640625,1e-04,0.8600000143051147,0.6093478798866272,0.6093478798866272
279,0.9900000095367432,0.019196869805455208,0.019196869805455208,1e-04,0.8500000238418579,0.6093333959579468,0.6093333959579468
280,0.9800000190734863,0.05024264380335808,0.05024264380335808,1e-04,0.8500000238418579,0.6090681552886963,0.6090681552886963
281,0.9700000286102295,0.07246328145265579,0.07246328145265579,1e-04,0.8500000238418579,0.6087480187416077,0.6087480187416077
282,0.9700000286102295,0.04509778320789337,0.04509778320789337,1e-04,0.8600000143051147,0.6085174679756165,0.6085174679756165
283,0.9900000095367432,0.03781072795391083,0.03781072795391083,1e-04,0.8600000143051147,0.6086633801460266,0.6086633801460266
284,0.9700000286102295,0.07122009247541428,0.07122009247541428,1e-04,0.8600000143051147,0.6095579862594604,0.6095579862594604
285,1.0,0.008107773028314114,0.008107773028314114,1e-04,0.8600000143051147,0.6106324195861816,0.6106324195861816
286,0.9900000095367432,0.04266783595085144,0.04266783595085144,1e-04,0.8600000143051147,0.6119805574417114,0.6119805574417114
287,0.9800000190734863,0.05856914445757866,0.05856914445757866,1e-04,0.8600000143051147,0.613402247428894,0.613402247428894
288,0.9700000286102295,0.05895761400461197,0.05895761400461197,1e-04,0.8600000143051147,0.6145369410514832,0.6145369410514832
289,0.9900000095367432,0.041091516613960266,0.041091516613960266,1e-04,0.8600000143051147,0.6156691312789917,0.6156691312789917
290,0.9800000190734863,0.031290654093027115,0.031290654093027115,1e-04,0.8600000143051147,0.6168069839477539,0.6168069839477539
291,0.9800000190734863,0.03276873752474785,0.03276873752474785,1e-04,0.8600000143051147,0.6169508099555969,0.6169508099555969
292,0.9900000095367432,0.034142374992370605,0.034142374992370605,1e-04,0.8600000143051147,0.6175049543380737,0.6175049543380737
293,0.9800000190734863,0.06210324168205261,0.06210324168205261,1e-04,0.8500000238418579,0.6181498169898987,0.6181498169898987
294,1.0,0.01645883359014988,0.01645883359014988,1e-04,0.8500000238418579,0.6188561916351318,0.6188561916351318
295,0.9800000190734863,0.06069108471274376,0.06069108471274376,1e-04,0.8500000238418579,0.6197569370269775,0.6197569370269775
296,0.9900000095367432,0.041314929723739624,0.041314929723739624,1e-04,0.8500000238418579,0.6199347972869873,0.6199347972869873
297,1.0,0.022739654406905174,0.022739654406905174,1e-04,0.8500000238418579,0.6202481985092163,0.6202481985092163
298,0.9700000286102295,0.05701085180044174,0.05701085180044174,1e-04,0.8500000238418579,0.6205757856369019,0.6205757856369019
299,0.9599999785423279,0.05108461529016495,0.05108461529016495,1e-04,0.8500000238418579,0.6204265356063843,0.6204265356063843
300,0.949999988079071,0.0966564491391182,0.0966564491391182,1e-04,0.8500000238418579,0.6197984218597412,0.6197984218597412
301,1.0,0.03007550910115242,0.03007550910115242,1e-04,0.8500000238418579,0.6199249029159546,0.6199249029159546
302,0.9700000286102295,0.0582270473241806,0.0582270473241806,1e-04,0.8600000143051147,0.6202495694160461,0.6202495694160461
303,0.9599999785423279,0.07096512615680695,0.07096512615680695,1e-04,0.8600000143051147,0.6217465400695801,0.6217465400695801
304,0.9900000095367432,0.027752738445997238,0.027752738445997238,1e-04,0.8500000238418579,0.6242506504058838,0.6242506504058838
305,1.0,0.014800984412431717,0.014800984412431717,1e-04,0.8399999737739563,0.6276386380195618,0.6276386380195618
306,0.9800000190734863,0.032483555376529694,0.032483555376529694,1e-04,0.8399999737739563,0.6300497651100159,0.6300497651100159
307,0.9900000095367432,0.03371824696660042,0.03371824696660042,1e-04,0.8399999737739563,0.6327230930328369,0.6327230930328369
308,0.9800000190734863,0.07069507241249084,0.07069507241249084,1e-04,0.8399999737739563,0.6350751519203186,0.6350751519203186
309,0.9800000190734863,0.04396265000104904,0.04396265000104904,1e-04,0.8299999833106995,0.6390548348426819,0.6390548348426819
310,0.9700000286102295,0.08221802860498428,0.08221802860498428,1e-04,0.8299999833106995,0.6399547457695007,0.6399547457695007
311,0.9700000286102295,0.058136891573667526,0.058136891573667526,1e-04,0.8299999833106995,0.6362769603729248,0.6362769603729248
312,0.9900000095367432,0.04046637564897537,0.04046637564897537,1e-04,0.8399999737739563,0.6318266987800598,0.6318266987800598
313,0.9900000095367432,0.016078174114227295,0.016078174114227295,1e-04,0.8399999737739563,0.6268854737281799,0.6268854737281799
314,0.9800000190734863,0.05745066702365875,0.05745066702365875,1e-04,0.8399999737739563,0.6227133274078369,0.6227133274078369
315,0.9800000190734863,0.08285034447908401,0.08285034447908401,1e-04,0.8600000143051147,0.6200681924819946,0.6200681924819946
316,0.9800000190734863,0.048233527690172195,0.048233527690172195,1e-04,0.8600000143051147,0.6167747378349304,0.6167747378349304
317,0.9800000190734863,0.07914913445711136,0.07914913445711136,1e-04,0.8600000143051147,0.6150482296943665,0.6150482296943665
318,1.0,0.025379285216331482,0.025379285216331482,1e-04,0.8500000238418579,0.6147139072418213,0.6147139072418213
319,0.9900000095367432,0.028153307735919952,0.028153307735919952,1e-04,0.8500000238418579,0.6154364943504333,0.6154364943504333
320,0.9800000190734863,0.058221668004989624,0.058221668004989624,1e-04,0.8500000238418579,0.615703821182251,0.615703821182251
321,0.9800000190734863,0.051426783204078674,0.051426783204078674,1e-04,0.8500000238418579,0.6154198050498962,0.6154198050498962
322,1.0,0.01944148726761341,0.01944148726761341,1e-04,0.8500000238418579,0.6148830652236938,0.6148830652236938
323,0.9900000095367432,0.040383946150541306,0.040383946150541306,1e-04,0.8500000238418579,0.6136655211448669,0.6136655211448669
324,1.0,0.02113224007189274,0.02113224007189274,1e-04,0.8500000238418579,0.6128532290458679,0.6128532290458679
325,0.9900000095367432,0.032434988766908646,0.032434988766908646,1e-04,0.8600000143051147,0.6131529211997986,0.6131529211997986
326,0.9700000286102295,0.0638936460018158,0.0638936460018158,1e-04,0.8600000143051147,0.6128151416778564,0.6128151416778564
327,1.0,0.014354380778968334,0.014354380778968334,1e-04,0.8600000143051147,0.6131584048271179,0.6131584048271179
328,0.9800000190734863,0.06040336564183235,0.06040336564183235,1e-04,0.8600000143051147,0.6133678555488586,0.6133678555488586
329,0.9800000190734863,0.06501931697130203,0.06501931697130203,1e-04,0.8600000143051147,0.6122649908065796,0.6122649908065796
330,0.9900000095367432,0.031026475131511688,0.031026475131511688,1e-04,0.8500000238418579,0.6122955083847046,0.6122955083847046
331,0.9900000095367432,0.03393447399139404,0.03393447399139404,1e-04,0.8500000238418579,0.6127962470054626,0.6127962470054626
332,0.9900000095367432,0.04844428226351738,0.04844428226351738,1e-04,0.8500000238418579,0.613702654838562,0.613702654838562
333,0.9800000190734863,0.04941254109144211,0.04941254109144211,1e-04,0.8500000238418579,0.6152533888816833,0.6152533888816833
334,1.0,0.01542018260806799,0.01542018260806799,1e-04,0.8500000238418579,0.616664469242096,0.616664469242096
335,0.9900000095367432,0.03935510665178299,0.03935510665178299,1e-04,0.8500000238418579,0.6174456477165222,0.6174456477165222
336,0.9599999785423279,0.08242461085319519,0.08242461085319519,1e-04,0.8500000238418579,0.6177142858505249,0.6177142858505249
337,1.0,0.024868089705705643,0.024868089705705643,1e-04,0.8500000238418579,0.6180450320243835,0.6180450320243835
338,1.0,0.01573467068374157,0.01573467068374157,1e-04,0.8500000238418579,0.6187848448753357,0.6187848448753357
339,0.9700000286102295,0.07170291244983673,0.07170291244983673,1e-04,0.8500000238418579,0.6203890442848206,0.6203890442848206
340,0.9700000286102295,0.045202404260635376,0.045202404260635376,1e-04,0.8500000238418579,0.6224589347839355,0.6224589347839355
341,0.9599999785423279,0.07392615079879761,0.07392615079879761,1e-04,0.8500000238418579,0.6227738857269287,0.6227738857269287
342,0.9800000190734863,0.09900762885808945,0.09900762885808945,1e-04,0.8500000238418579,0.621842622756958,0.621842622756958
343,0.9800000190734863,0.04076402634382248,0.04076402634382248,1e-04,0.8500000238418579,0.6213984489440918,0.6213984489440918
344,0.9800000190734863,0.03043777495622635,0.03043777495622635,1e-04,0.8500000238418579,0.6215406060218811,0.6215406060218811
345,0.9900000095367432,0.024701232090592384,0.024701232090592384,1e-04,0.8600000143051147,0.622032105922699,0.622032105922699
346,0.9599999785423279,0.07128827273845673,0.07128827273845673,1e-04,0.8600000143051147,0.6233413219451904,0.6233413219451904
347,0.9800000190734863,0.06461974233388901,0.06461974233388901,1e-04,0.8600000143051147,0.6237849593162537,0.6237849593162537
348,1.0,0.03204469382762909,0.03204469382762909,1e-04,0.8600000143051147,0.6236724853515625,0.6236724853515625
349,0.9900000095367432,0.036754004657268524,0.036754004657268524,1e-04,0.8600000143051147,0.6235631704330444,0.6235631704330444
350,0.9800000190734863,0.07093813270330429,0.07093813270330429,1e-04,0.8600000143051147,0.6220346689224243,0.6220346689224243
351,0.9800000190734863,0.03252243623137474,0.03252243623137474,1e-04,0.8600000143051147,0.6209714412689209,0.6209714412689209
352,0.9800000190734863,0.03585906699299812,0.03585906699299812,1e-04,0.8600000143051147,0.6215565204620361,0.6215565204620361
353,0.9800000190734863,0.04261808469891548,0.04261808469891548,1e-04,0.8600000143051147,0.6220101714134216,0.6220101714134216
354,1.0,0.020006094127893448,0.020006094127893448,1e-04,0.8600000143051147,0.6229499578475952,0.6229499578475952
355,0.9900000095367432,0.02044956386089325,0.02044956386089325,1e-04,0.8600000143051147,0.6236848831176758,0.6236848831176758
356,0.9800000190734863,0.0312044620513916,0.0312044620513916,1e-04,0.8600000143051147,0.623818039894104,0.623818039894104
357,0.9800000190734863,0.05964066460728645,0.05964066460728645,1e-04,0.8600000143051147,0.6242599487304688,0.6242599487304688
358,1.0,0.015447087585926056,0.015447087585926056,1e-04,0.8600000143051147,0.6260846853256226,0.6260846853256226
359,0.9800000190734863,0.04514336958527565,0.04514336958527565,1e-04,0.8600000143051147,0.6303073167800903,0.6303073167800903
360,0.9800000190734863,0.03317565470933914,0.03317565470933914,1e-04,0.8600000143051147,0.6345817446708679,0.6345817446708679
361,0.9900000095367432,0.02493005245923996,0.02493005245923996,1e-04,0.8600000143051147,0.6374053955078125,0.6374053955078125
362,0.9700000286102295,0.08797964453697205,0.08797964453697205,1e-04,0.8600000143051147,0.6388760805130005,0.6388760805130005
363,0.9700000286102295,0.06062386557459831,0.06062386557459831,1e-04,0.8500000238418579,0.6407577395439148,0.6407577395439148
364,0.9800000190734863,0.03567013144493103,0.03567013144493103,1e-04,0.8600000143051147,0.6406009793281555,0.6406009793281555
365,1.0,0.026267100125551224,0.026267100125551224,1e-04,0.8600000143051147,0.6398373246192932,0.6398373246192932
366,0.9900000095367432,0.03323618322610855,0.03323618322610855,1e-04,0.8600000143051147,0.6398012042045593,0.6398012042045593
367,0.9599999785423279,0.09522223472595215,0.09522223472595215,1e-04,0.8600000143051147,0.6363565921783447,0.6363565921783447
368,0.9900000095367432,0.03590082749724388,0.03590082749724388,1e-04,0.8600000143051147,0.6326651573181152,0.6326651573181152
369,0.9800000190734863,0.030472194775938988,0.030472194775938988,1e-04,0.8600000143051147,0.630896806716919,0.630896806716919
370,0.9800000190734863,0.04185127839446068,0.04185127839446068,1e-04,0.8600000143051147,0.6314336061477661,0.6314336061477661
371,0.9900000095367432,0.02789836935698986,0.02789836935698986,1e-04,0.8600000143051147,0.6333982348442078,0.6333982348442078
372,0.9900000095367432,0.05195017158985138,0.05195017158985138,1e-04,0.8600000143051147,0.6362766623497009,0.6362766623497009
373,0.9800000190734863,0.06659560650587082,0.06659560650587082,1e-04,0.8600000143051147,0.6392458081245422,0.6392458081245422
374,0.9700000286102295,0.08380924165248871,0.08380924165248871,1e-04,0.8600000143051147,0.6440873742103577,0.6440873742103577
375,0.9900000095367432,0.022711778059601784,0.022711778059601784,1e-04,0.8600000143051147,0.6490435004234314,0.6490435004234314
376,0.9800000190734863,0.09584463387727737,0.09584463387727737,1e-04,0.8600000143051147,0.6527961492538452,0.6527961492538452
377,1.0,0.021924369037151337,0.021924369037151337,1e-04,0.8500000238418579,0.6557654738426208,0.6557654738426208
378,0.9900000095367432,0.027032917365431786,0.027032917365431786,1e-04,0.8500000238418579,0.6569367051124573,0.6569367051124573
379,0.9900000095367432,0.02708723023533821,0.02708723023533821,1e-04,0.8500000238418579,0.6556975841522217,0.6556975841522217
380,0.9700000286102295,0.07921525835990906,0.07921525835990906,1e-04,0.8600000143051147,0.6498029232025146,0.6498029232025146
381,1.0,0.03107261471450329,0.03107261471450329,1e-04,0.8500000238418579,0.6462354063987732,0.6462354063987732
382,0.949999988079071,0.09188313782215118,0.09188313782215118,1e-04,0.8500000238418579,0.6436505317687988,0.6436505317687988
383,0.9700000286102295,0.06128040701150894,0.06128040701150894,1e-04,0.8500000238418579,0.6441514492034912,0.6441514492034912
384,0.9800000190734863,0.06826075166463852,0.06826075166463852,1e-04,0.8500000238418579,0.6446536183357239,0.6446536183357239
385,0.9900000095367432,0.02666603773832321,0.02666603773832321,1e-04,0.8500000238418579,0.6465638875961304,0.6465638875961304
386,0.9700000286102295,0.06799662858247757,0.06799662858247757,1e-04,0.8500000238418579,0.6478773355484009,0.6478773355484009
387,0.9599999785423279,0.07605338841676712,0.07605338841676712,1e-04,0.8500000238418579,0.6464535593986511,0.6464535593986511
388,0.9700000286102295,0.06616242229938507,0.06616242229938507,1e-04,0.8500000238418579,0.6440568566322327,0.6440568566322327
389,0.9800000190734863,0.12344728410243988,0.12344728410243988,1e-04,0.8500000238418579,0.6393460631370544,0.6393460631370544
390,0.9599999785423279,0.08837457001209259,0.08837457001209259,1e-04,0.8600000143051147,0.6379335522651672,0.6379335522651672
391,0.9900000095367432,0.05492736026644707,0.05492736026644707,1e-04,0.8399999737739563,0.6422881484031677,0.6422881484031677
392,0.9900000095367432,0.0506364069879055,0.0506364069879055,1e-04,0.8399999737739563,0.6483830213546753,0.6483830213546753
393,0.9900000095367432,0.03635408729314804,0.03635408729314804,1e-04,0.8299999833106995,0.6567218899726868,0.6567218899726868
394,0.9700000286102295,0.062809057533741,0.062809057533741,1e-04,0.8299999833106995,0.6623109579086304,0.6623109579086304
395,1.0,0.023816749453544617,0.023816749453544617,1e-04,0.8399999737739563,0.667275071144104,0.667275071144104
396,0.9700000286102295,0.04545846953988075,0.04545846953988075,1e-04,0.8399999737739563,0.6663839817047119,0.6663839817047119
397,0.9900000095367432,0.07703209668397903,0.07703209668397903,1e-04,0.8299999833106995,0.659058153629303,0.659058153629303
398,0.9800000190734863,0.05424608662724495,0.05424608662724495,1e-04,0.8299999833106995,0.6483791470527649,0.6483791470527649
399,1.0,0.015541628934442997,0.015541628934442997,1e-04,0.8299999833106995,0.6391580104827881,0.6391580104827881
400,0.9599999785423279,0.0597308911383152,0.0597308911383152,1e-04,0.8500000238418579,0.6331965923309326,0.6331965923309326
401,0.9900000095367432,0.035093460232019424,0.035093460232019424,1e-04,0.8600000143051147,0.6297620534896851,0.6297620534896851
402,0.9700000286102295,0.0962991937994957,0.0962991937994957,1e-04,0.8600000143051147,0.6285690665245056,0.6285690665245056
403,0.9900000095367432,0.026606012135744095,0.026606012135744095,1e-04,0.8500000238418579,0.6288704872131348,0.6288704872131348
404,1.0,0.01512138918042183,0.01512138918042183,1e-04,0.8500000238418579,0.6312248110771179,0.6312248110771179
405,1.0,0.027421550825238228,0.027421550825238228,1e-04,0.8500000238418579,0.633485734462738,0.633485734462738
406,0.9800000190734863,0.06372934579849243,0.06372934579849243,1e-04,0.8500000238418579,0.6333656907081604,0.6333656907081604
407,0.9700000286102295,0.08805718272924423,0.08805718272924423,1e-04,0.8500000238418579,0.6325951218605042,0.6325951218605042
408,0.9900000095367432,0.04913200065493584,0.04913200065493584,1e-04,0.8600000143051147,0.6327854990959167,0.6327854990959167
409,0.9900000095367432,0.02808123268187046,0.02808123268187046,1e-04,0.8600000143051147,0.6340572834014893,0.6340572834014893
410,0.9800000190734863,0.027624011039733887,0.027624011039733887,1e-04,0.8500000238418579,0.636418342590332,0.636418342590332
411,0.9700000286102295,0.0585159957408905,0.0585159957408905,1e-04,0.8500000238418579,0.6370731592178345,0.6370731592178345
412,0.949999988079071,0.07169737666845322,0.07169737666845322,1e-04,0.8500000238418579,0.6363803148269653,0.6363803148269653
413,0.9900000095367432,0.04713898524641991,0.04713898524641991,1e-04,0.8600000143051147,0.6336574554443359,0.6336574554443359
414,0.9700000286102295,0.07327661663293839,0.07327661663293839,1e-04,0.8600000143051147,0.6317609548568726,0.6317609548568726
415,0.9700000286102295,0.03759828954935074,0.03759828954935074,1e-04,0.8600000143051147,0.6318368315696716,0.6318368315696716
416,0.9800000190734863,0.030365264043211937,0.030365264043211937,1e-04,0.8600000143051147,0.6313174962997437,0.6313174962997437
417,0.9800000190734863,0.023808414116501808,0.023808414116501808,1e-04,0.8600000143051147,0.6313261389732361,0.6313261389732361
418,0.9900000095367432,0.01293189637362957,0.01293189637362957,1e-04,0.8600000143051147,0.6315474510192871,0.6315474510192871
419,0.9900000095367432,0.03851179778575897,0.03851179778575897,1e-04,0.8600000143051147,0.631930947303772,0.631930947303772
420,0.9700000286102295,0.04279763624072075,0.04279763624072075,1e-04,0.8600000143051147,0.6329289674758911,0.6329289674758911
421,0.9900000095367432,0.031937554478645325,0.031937554478645325,1e-04,0.8600000143051147,0.6331313252449036,0.6331313252449036
422,0.9900000095367432,0.025747936218976974,0.025747936218976974,1e-04,0.8600000143051147,0.6337787508964539,0.6337787508964539
423,0.9800000190734863,0.03332583233714104,0.03332583233714104,1e-04,0.8600000143051147,0.6327232122421265,0.6327232122421265
424,0.9800000190734863,0.05271346494555473,0.05271346494555473,1e-04,0.8600000143051147,0.631762683391571,0.631762683391571
425,0.9800000190734863,0.06890617311000824,0.06890617311000824,1e-04,0.8600000143051147,0.6298804879188538,0.6298804879188538
426,0.9800000190734863,0.028712425380945206,0.028712425380945206,1e-04,0.8600000143051147,0.6278512477874756,0.6278512477874756
427,0.9800000190734863,0.09752767533063889,0.09752767533063889,1e-04,0.8500000238418579,0.625999927520752,0.625999927520752
428,0.9800000190734863,0.03274855762720108,0.03274855762720108,1e-04,0.8500000238418579,0.6266545653343201,0.6266545653343201
429,0.9900000095367432,0.06392410397529602,0.06392410397529602,1e-04,0.8500000238418579,0.6268744468688965,0.6268744468688965
430,0.9700000286102295,0.13783901929855347,0.13783901929855347,1e-04,0.8500000238418579,0.6272289156913757,0.6272289156913757
431,0.9800000190734863,0.05573701485991478,0.05573701485991478,1e-04,0.8500000238418579,0.6273862719535828,0.6273862719535828
432,0.9800000190734863,0.06622365117073059,0.06622365117073059,1e-04,0.8500000238418579,0.628824770450592,0.628824770450592
433,0.9900000095367432,0.05840037390589714,0.05840037390589714,1e-04,0.8500000238418579,0.6302675008773804,0.6302675008773804
434,0.9900000095367432,0.029880328103899956,0.029880328103899956,1e-04,0.8500000238418579,0.6320272088050842,0.6320272088050842
435,0.9800000190734863,0.030155785381793976,0.030155785381793976,1e-04,0.8500000238418579,0.6328222155570984,0.6328222155570984
436,0.9900000095367432,0.013967625796794891,0.013967625796794891,1e-04,0.8500000238418579,0.632835865020752,0.632835865020752
437,0.9900000095367432,0.04788189008831978,0.04788189008831978,1e-04,0.8500000238418579,0.6329876780509949,0.6329876780509949
438,0.9900000095367432,0.04248098284006119,0.04248098284006119,1e-04,0.8500000238418579,0.6330274343490601,0.6330274343490601
439,0.9599999785423279,0.09181185811758041,0.09181185811758041,1e-04,0.8500000238418579,0.6339330077171326,0.6339330077171326
440,0.9800000190734863,0.04342319071292877,0.04342319071292877,1e-04,0.8500000238418579,0.6340013742446899,0.6340013742446899
441,0.9900000095367432,0.0239764004945755,0.0239764004945755,1e-04,0.8500000238418579,0.634112536907196,0.634112536907196
442,0.9900000095367432,0.03903710097074509,0.03903710097074509,1e-04,0.8500000238418579,0.6336475014686584,0.6336475014686584
443,0.9800000190734863,0.044405579566955566,0.044405579566955566,1e-04,0.8500000238418579,0.6330816745758057,0.6330816745758057
444,1.0,0.01285598799586296,0.01285598799586296,1e-04,0.8500000238418579,0.6325736045837402,0.6325736045837402
445,0.9900000095367432,0.03211700916290283,0.03211700916290283,1e-04,0.8500000238418579,0.6303395628929138,0.6303395628929138
446,0.9800000190734863,0.05474274978041649,0.05474274978041649,1e-04,0.8500000238418579,0.6300902962684631,0.6300902962684631
447,0.9800000190734863,0.06780411303043365,0.06780411303043365,1e-04,0.8500000238418579,0.6301385760307312,0.6301385760307312
448,0.9900000095367432,0.05254675820469856,0.05254675820469856,1e-04,0.8500000238418579,0.6305870413780212,0.6305870413780212
449,0.9700000286102295,0.053293608129024506,0.053293608129024506,1e-04,0.8600000143051147,0.6319242715835571,0.6319242715835571
450,0.9800000190734863,0.04101537540555,0.04101537540555,1e-04,0.8600000143051147,0.6337535977363586,0.6337535977363586
451,1.0,0.008706411346793175,0.008706411346793175,1e-04,0.8600000143051147,0.6360816359519958,0.6360816359519958
452,0.9900000095367432,0.039158567786216736,0.039158567786216736,1e-04,0.8600000143051147,0.6377200484275818,0.6377200484275818
453,0.9800000190734863,0.04908895492553711,0.04908895492553711,1e-04,0.8500000238418579,0.6397963762283325,0.6397963762283325
454,0.949999988079071,0.07319904863834381,0.07319904863834381,1e-04,0.8500000238418579,0.6399596333503723,0.6399596333503723
455,0.9800000190734863,0.04001574590802193,0.04001574590802193,1e-04,0.8500000238418579,0.6403314471244812,0.6403314471244812
456,0.9800000190734863,0.047502316534519196,0.047502316534519196,1e-04,0.8399999737739563,0.6423249244689941,0.6423249244689941
457,0.9800000190734863,0.05522938072681427,0.05522938072681427,1e-04,0.8500000238418579,0.6420683264732361,0.6420683264732361
458,0.9399999976158142,0.09952923655509949,0.09952923655509949,1e-04,0.8399999737739563,0.6374829411506653,0.6374829411506653
459,0.9800000190734863,0.03438336029648781,0.03438336029648781,1e-04,0.8600000143051147,0.632719874382019,0.632719874382019
460,1.0,0.020963795483112335,0.020963795483112335,1e-04,0.8600000143051147,0.6306286454200745,0.6306286454200745
461,0.9800000190734863,0.024004831910133362,0.024004831910133362,1e-04,0.8600000143051147,0.6300151944160461,0.6300151944160461
462,0.9900000095367432,0.021375810727477074,0.021375810727477074,1e-04,0.8600000143051147,0.6307661533355713,0.6307661533355713
463,1.0,0.019740929827094078,0.019740929827094078,1e-04,0.8600000143051147,0.634249210357666,0.634249210357666
464,1.0,0.016384823247790337,0.016384823247790337,1e-04,0.8600000143051147,0.6383340358734131,0.6383340358734131
465,0.9900000095367432,0.03182908147573471,0.03182908147573471,1e-04,0.8600000143051147,0.6424045562744141,0.6424045562744141
466,0.9900000095367432,0.03348603844642639,0.03348603844642639,1e-04,0.8600000143051147,0.6441182494163513,0.6441182494163513
467,0.9900000095367432,0.029034417122602463,0.029034417122602463,1e-04,0.8600000143051147,0.6459135413169861,0.6459135413169861
468,0.9900000095367432,0.02878599241375923,0.02878599241375923,1e-04,0.8600000143051147,0.6449678540229797,0.6449678540229797
469,0.9300000071525574,0.13725772500038147,0.13725772500038147,1e-04,0.8600000143051147,0.6406639218330383,0.6406639218330383
470,0.9900000095367432,0.04780975356698036,0.04780975356698036,1e-04,0.8600000143051147,0.6377688646316528,0.6377688646316528
471,0.9900000095367432,0.0367058701813221,0.0367058701813221,1e-04,0.8600000143051147,0.6379774212837219,0.6379774212837219
472,1.0,0.008907003328204155,0.008907003328204155,1e-04,0.8600000143051147,0.6396778225898743,0.6396778225898743
473,0.9900000095367432,0.030504174530506134,0.030504174530506134,1e-04,0.8500000238418579,0.6419628262519836,0.6419628262519836
474,0.9800000190734863,0.06808969378471375,0.06808969378471375,1e-04,0.8500000238418579,0.6445408463478088,0.6445408463478088
475,1.0,0.014736911281943321,0.014736911281943321,1e-04,0.8399999737739563,0.647458553314209,0.647458553314209
476,0.9800000190734863,0.03713497892022133,0.03713497892022133,1e-04,0.8399999737739563,0.6506616473197937,0.6506616473197937
477,0.9599999785423279,0.09416436403989792,0.09416436403989792,1e-04,0.8399999737739563,0.6518259644508362,0.6518259644508362
478,1.0,0.019905999302864075,0.019905999302864075,1e-04,0.8399999737739563,0.6520050764083862,0.6520050764083862
479,0.9700000286102295,0.047941647469997406,0.047941647469997406,1e-04,0.8399999737739563,0.6503051519393921,0.6503051519393921
480,0.9599999785423279,0.08899027109146118,0.08899027109146118,1e-04,0.8399999737739563,0.6453579068183899,0.6453579068183899
481,0.9800000190734863,0.07443737238645554,0.07443737238645554,1e-04,0.8399999737739563,0.6389340758323669,0.6389340758323669
482,0.9800000190734863,0.02984757162630558,0.02984757162630558,1e-04,0.8399999737739563,0.6352279782295227,0.6352279782295227
483,0.9900000095367432,0.02413906529545784,0.02413906529545784,1e-04,0.8500000238418579,0.6332697868347168,0.6332697868347168
484,1.0,0.01729697920382023,0.01729697920382023,1e-04,0.8600000143051147,0.6316872835159302,0.6316872835159302
485,0.9700000286102295,0.050036683678627014,0.050036683678627014,1e-04,0.8600000143051147,0.6308058500289917,0.6308058500289917
486,1.0,0.007526107598096132,0.007526107598096132,1e-04,0.8600000143051147,0.630422830581665,0.630422830581665
487,0.9700000286102295,0.0706079751253128,0.0706079751253128,1e-04,0.8600000143051147,0.6298156380653381,0.6298156380653381
488,0.9800000190734863,0.07485184073448181,0.07485184073448181,1e-04,0.8600000143051147,0.6282646656036377,0.6282646656036377
489,0.9800000190734863,0.0490969717502594,0.0490969717502594,1e-04,0.8600000143051147,0.6268165707588196,0.6268165707588196
490,1.0,0.01924346759915352,0.01924346759915352,1e-04,0.8600000143051147,0.6261230111122131,0.6261230111122131
491,0.9900000095367432,0.029052913188934326,0.029052913188934326,1e-04,0.8600000143051147,0.6258382201194763,0.6258382201194763
492,0.9900000095367432,0.026961375027894974,0.026961375027894974,1e-04,0.8600000143051147,0.6253278851509094,0.6253278851509094
493,1.0,0.02144456095993519,0.02144456095993519,1e-04,0.8600000143051147,0.6243938207626343,0.6243938207626343
494,0.9900000095367432,0.0306845735758543,0.0306845735758543,1e-04,0.8600000143051147,0.6243628859519958,0.6243628859519958
495,0.9800000190734863,0.041378770023584366,0.041378770023584366,1e-04,0.8600000143051147,0.624042272567749,0.624042272567749
496,0.9800000190734863,0.035535141825675964,0.035535141825675964,1e-04,0.8600000143051147,0.6245439648628235,0.6245439648628235
497,1.0,0.02768230438232422,0.02768230438232422,1e-04,0.8600000143051147,0.6260054111480713,0.6260054111480713
498,0.9900000095367432,0.03586573526263237,0.03586573526263237,1e-04,0.8500000238418579,0.6285803318023682,0.6285803318023682
499,0.9700000286102295,0.050103627145290375,0.050103627145290375,1e-04,0.8500000238418579,0.6299628615379333,0.6299628615379333
500,0.9800000190734863,0.03451608121395111,0.03451608121395111,1e-04,0.8500000238418579,0.631125807762146,0.631125807762146
501,0.9900000095367432,0.02514556609094143,0.02514556609094143,1e-04,0.8500000238418579,0.6318871974945068,0.6318871974945068
502,0.9800000190734863,0.04440636187791824,0.04440636187791824,1e-04,0.8600000143051147,0.6322357058525085,0.6322357058525085
503,0.9800000190734863,0.053096551448106766,0.053096551448106766,1e-04,0.8600000143051147,0.6339703798294067,0.6339703798294067
504,0.9599999785423279,0.05537092313170433,0.05537092313170433,1e-04,0.8600000143051147,0.6364428400993347,0.6364428400993347
505,0.9900000095367432,0.04060296714305878,0.04060296714305878,1e-04,0.8600000143051147,0.6389127969741821,0.6389127969741821
506,0.9900000095367432,0.04178881645202637,0.04178881645202637,1e-04,0.8600000143051147,0.6408999562263489,0.6408999562263489
507,0.9800000190734863,0.04609540477395058,0.04609540477395058,1e-04,0.8500000238418579,0.6429526805877686,0.6429526805877686
508,0.9900000095367432,0.029451884329319,0.029451884329319,1e-04,0.8500000238418579,0.6450464725494385,0.6450464725494385
509,1.0,0.010222155600786209,0.010222155600786209,1e-04,0.8500000238418579,0.6473426818847656,0.6473426818847656
510,0.9800000190734863,0.0410289540886879,0.0410289540886879,1e-04,0.8500000238418579,0.6499115824699402,0.6499115824699402
511,0.9800000190734863,0.05873562768101692,0.05873562768101692,1e-04,0.8500000238418579,0.651050329208374,0.651050329208374
512,0.9900000095367432,0.03417413309216499,0.03417413309216499,1e-04,0.8500000238418579,0.6522567272186279,0.6522567272186279
513,0.9900000095367432,0.02075088769197464,0.02075088769197464,1e-04,0.8500000238418579,0.6532666683197021,0.6532666683197021
514,1.0,0.016423147171735764,0.016423147171735764,1e-04,0.8500000238418579,0.6553186178207397,0.6553186178207397
515,0.9800000190734863,0.04922296106815338,0.04922296106815338,1e-04,0.8500000238418579,0.6580663919448853,0.6580663919448853
516,0.9700000286102295,0.06994524598121643,0.06994524598121643,1e-04,0.8500000238418579,0.6610932350158691,0.6610932350158691
517,0.9900000095367432,0.03844843804836273,0.03844843804836273,1e-04,0.8500000238418579,0.6644090414047241,0.6644090414047241
518,0.9900000095367432,0.047965873032808304,0.047965873032808304,1e-04,0.8500000238418579,0.6681528687477112,0.6681528687477112
519,0.9900000095367432,0.018541770055890083,0.018541770055890083,1e-04,0.8500000238418579,0.672529935836792,0.672529935836792
520,0.9900000095367432,0.03659655153751373,0.03659655153751373,1e-04,0.8500000238418579,0.6765705943107605,0.6765705943107605
521,0.9800000190734863,0.04333491623401642,0.04333491623401642,1e-04,0.8500000238418579,0.680901050567627,0.680901050567627
522,0.9700000286102295,0.07666429132223129,0.07666429132223129,1e-04,0.8500000238418579,0.681984543800354,0.681984543800354
523,0.9900000095367432,0.029286706820130348,0.029286706820130348,1e-04,0.8500000238418579,0.6823550462722778,0.6823550462722778
524,0.9900000095367432,0.026686884462833405,0.026686884462833405,1e-04,0.8500000238418579,0.6836959719657898,0.6836959719657898
525,1.0,0.015906281769275665,0.015906281769275665,1e-04,0.8500000238418579,0.6848888397216797,0.6848888397216797
526,1.0,0.011448107659816742,0.011448107659816742,1e-04,0.8500000238418579,0.6866163015365601,0.6866163015365601
527,0.9599999785423279,0.09469452500343323,0.09469452500343323,1e-04,0.8500000238418579,0.6896404027938843,0.6896404027938843
528,0.9800000190734863,0.03274685516953468,0.03274685516953468,1e-04,0.8500000238418579,0.6910442113876343,0.6910442113876343
529,0.9700000286102295,0.04715811088681221,0.04715811088681221,1e-04,0.8500000238418579,0.6897217035293579,0.6897217035293579
530,1.0,0.009970447048544884,0.009970447048544884,1e-04,0.8500000238418579,0.688723623752594,0.688723623752594
531,0.9800000190734863,0.04163913428783417,0.04163913428783417,1e-04,0.8500000238418579,0.6882921457290649,0.6882921457290649
532,0.9900000095367432,0.019037198275327682,0.019037198275327682,1e-04,0.8500000238418579,0.6877948641777039,0.6877948641777039
533,0.9900000095367432,0.023612184450030327,0.023612184450030327,1e-04,0.8500000238418579,0.687238872051239,0.687238872051239
534,0.9900000095367432,0.03762757033109665,0.03762757033109665,1e-04,0.8500000238418579,0.6867334246635437,0.6867334246635437
535,0.9800000190734863,0.03603911027312279,0.03603911027312279,1e-04,0.8500000238418579,0.6875669956207275,0.6875669956207275
536,0.9900000095367432,0.028244808316230774,0.028244808316230774,1e-04,0.8500000238418579,0.6870474219322205,0.6870474219322205
537,1.0,0.013969765976071358,0.013969765976071358,1e-04,0.8500000238418579,0.6863095164299011,0.6863095164299011
538,1.0,0.015457169152796268,0.015457169152796268,1e-04,0.8500000238418579,0.6852514147758484,0.6852514147758484
539,0.9900000095367432,0.035466473549604416,0.035466473549604416,1e-04,0.8500000238418579,0.6836043000221252,0.6836043000221252
540,0.9800000190734863,0.027566716074943542,0.027566716074943542,1e-04,0.8500000238418579,0.6798156499862671,0.6798156499862671
541,0.9900000095367432,0.012057091109454632,0.012057091109454632,1e-04,0.8500000238418579,0.6768389344215393,0.6768389344215393
542,0.9900000095367432,0.027783283963799477,0.027783283963799477,1e-04,0.8500000238418579,0.674913227558136,0.674913227558136
543,0.9900000095367432,0.06412308663129807,0.06412308663129807,1e-04,0.8500000238418579,0.6733880639076233,0.6733880639076233
544,0.9800000190734863,0.053198181092739105,0.053198181092739105,1e-04,0.8500000238418579,0.6726810336112976,0.6726810336112976
545,0.9900000095367432,0.01612517051398754,0.01612517051398754,1e-04,0.8500000238418579,0.672566294670105,0.672566294670105
546,0.9900000095367432,0.03861839324235916,0.03861839324235916,1e-04,0.8500000238418579,0.6733596920967102,0.6733596920967102
547,0.9800000190734863,0.07362294942140579,0.07362294942140579,1e-04,0.8500000238418579,0.6741220355033875,0.6741220355033875
548,0.9700000286102295,0.05312955006957054,0.05312955006957054,1e-04,0.8500000238418579,0.6731047034263611,0.6731047034263611
549,0.9900000095367432,0.04072851687669754,0.04072851687669754,1e-04,0.8500000238418579,0.6719838976860046,0.6719838976860046
550,0.9900000095367432,0.0316474512219429,0.0316474512219429,1e-04,0.8600000143051147,0.6713210344314575,0.6713210344314575
551,1.0,0.017545804381370544,0.017545804381370544,1e-04,0.8600000143051147,0.6712404489517212,0.6712404489517212
552,0.9800000190734863,0.06473707407712936,0.06473707407712936,1e-04,0.8600000143051147,0.6707435846328735,0.6707435846328735
553,0.9900000095367432,0.03461437299847603,0.03461437299847603,1e-04,0.8600000143051147,0.6698409914970398,0.6698409914970398
554,0.9800000190734863,0.03669171780347824,0.03669171780347824,1e-04,0.8600000143051147,0.6690597534179688,0.6690597534179688
555,0.9800000190734863,0.05126551166176796,0.05126551166176796,1e-04,0.8600000143051147,0.6677265167236328,0.6677265167236328
556,0.9900000095367432,0.07392360270023346,0.07392360270023346,1e-04,0.8600000143051147,0.6665472388267517,0.6665472388267517
557,0.9700000286102295,0.07368800044059753,0.07368800044059753,1e-04,0.8600000143051147,0.6640243530273438,0.6640243530273438
558,0.9700000286102295,0.04363846406340599,0.04363846406340599,1e-04,0.8600000143051147,0.662047803401947,0.662047803401947
559,0.9900000095367432,0.02458934299647808,0.02458934299647808,1e-04,0.8500000238418579,0.661287784576416,0.661287784576416
560,1.0,0.017423002049326897,0.017423002049326897,1e-04,0.8500000238418579,0.6617262363433838,0.6617262363433838
561,1.0,0.02116801217198372,0.02116801217198372,1e-04,0.8500000238418579,0.6627951860427856,0.6627951860427856
562,0.9800000190734863,0.03770877793431282,0.03770877793431282,1e-04,0.8500000238418579,0.6649190783500671,0.6649190783500671
563,0.9900000095367432,0.03834051266312599,0.03834051266312599,1e-04,0.8500000238418579,0.6640316843986511,0.6640316843986511
564,0.9900000095367432,0.04082454741001129,0.04082454741001129,1e-04,0.8500000238418579,0.6621986627578735,0.6621986627578735
565,1.0,0.01587582565844059,0.01587582565844059,1e-04,0.8500000238418579,0.6619061231613159,0.6619061231613159
566,0.9900000095367432,0.03209381178021431,0.03209381178021431,1e-04,0.8500000238418579,0.6626951694488525,0.6626951694488525
567,0.9900000095367432,0.030966036021709442,0.030966036021709442,1e-04,0.8500000238418579,0.6634604930877686,0.6634604930877686
568,0.9700000286102295,0.04685286432504654,0.04685286432504654,1e-04,0.8500000238418579,0.6659386157989502,0.6659386157989502
569,0.9800000190734863,0.0656435564160347,0.0656435564160347,1e-04,0.8600000143051147,0.6682171821594238,0.6682171821594238
570,1.0,0.0168580561876297,0.0168580561876297,1e-04,0.8600000143051147,0.6709072589874268,0.6709072589874268
571,0.9700000286102295,0.044629842042922974,0.044629842042922974,1e-04,0.8600000143051147,0.6740877032279968,0.6740877032279968
572,0.9700000286102295,0.041918329894542694,0.041918329894542694,1e-04,0.8600000143051147,0.6781030297279358,0.6781030297279358
573,0.9800000190734863,0.028720686212182045,0.028720686212182045,1e-04,0.8600000143051147,0.6815430521965027,0.6815430521965027
574,0.9900000095367432,0.025631681084632874,0.025631681084632874,1e-04,0.8600000143051147,0.6836735010147095,0.6836735010147095
575,0.9900000095367432,0.018258070573210716,0.018258070573210716,1e-04,0.8600000143051147,0.6859180927276611,0.6859180927276611
576,0.9900000095367432,0.039980366826057434,0.039980366826057434,1e-04,0.8500000238418579,0.6882212162017822,0.6882212162017822
577,1.0,0.01342985313385725,0.01342985313385725,1e-04,0.8500000238418579,0.6905865669250488,0.6905865669250488
578,1.0,0.015696842223405838,0.015696842223405838,1e-04,0.8500000238418579,0.6938105225563049,0.6938105225563049
579,1.0,0.016317127272486687,0.016317127272486687,1e-04,0.8500000238418579,0.6975054740905762,0.6975054740905762
580,0.9900000095367432,0.026055777445435524,0.026055777445435524,1e-04,0.8500000238418579,0.7010125517845154,0.7010125517845154
581,1.0,0.031095638871192932,0.031095638871192932,1e-04,0.8399999737739563,0.7057251930236816,0.7057251930236816
582,1.0,0.01815854385495186,0.01815854385495186,1e-04,0.8399999737739563,0.7114782929420471,0.7114782929420471
583,0.9700000286102295,0.04446829855442047,0.04446829855442047,1e-04,0.8399999737739563,0.7157537937164307,0.7157537937164307
584,0.9599999785423279,0.07710929214954376,0.07710929214954376,1e-04,0.8399999737739563,0.7176496982574463,0.7176496982574463
585,0.9900000095367432,0.03037077933549881,0.03037077933549881,1e-04,0.8399999737739563,0.7188442349433899,0.7188442349433899
586,0.9900000095367432,0.0355287566781044,0.0355287566781044,1e-04,0.8399999737739563,0.7183657884597778,0.7183657884597778
587,0.9900000095367432,0.021375181153416634,0.021375181153416634,1e-04,0.8399999737739563,0.7206965684890747,0.7206965684890747
588,1.0,0.013809527270495892,0.013809527270495892,1e-04,0.8399999737739563,0.7218086123466492,0.7218086123466492
589,0.9900000095367432,0.024763692170381546,0.024763692170381546,1e-04,0.8399999737739563,0.7216631174087524,0.7216631174087524
590,0.9900000095367432,0.026499086990952492,0.026499086990952492,1e-04,0.8399999737739563,0.7225394248962402,0.7225394248962402
591,0.9900000095367432,0.04367575794458389,0.04367575794458389,1e-04,0.8500000238418579,0.7231358885765076,0.7231358885765076
592,0.9599999785423279,0.056707993149757385,0.056707993149757385,1e-04,0.8399999737739563,0.7249014377593994,0.7249014377593994
593,1.0,0.01901167817413807,0.01901167817413807,1e-04,0.8399999737739563,0.7267880439758301,0.7267880439758301
594,1.0,0.01733412593603134,0.01733412593603134,1e-04,0.8399999737739563,0.7272992134094238,0.7272992134094238
595,0.9800000190734863,0.057393595576286316,0.057393595576286316,1e-04,0.8399999737739563,0.729072093963623,0.729072093963623
596,0.9900000095367432,0.03369854763150215,0.03369854763150215,1e-04,0.8399999737739563,0.7328513264656067,0.7328513264656067
597,0.9700000286102295,0.0487377867102623,0.0487377867102623,1e-04,0.8399999737739563,0.7351714968681335,0.7351714968681335
598,0.9900000095367432,0.02405374124646187,0.02405374124646187,1e-04,0.8399999737739563,0.7372994422912598,0.7372994422912598
599,0.9800000190734863,0.07191425561904907,0.07191425561904907,1e-04,0.8399999737739563,0.7389841675758362,0.7389841675758362
600,0.9700000286102295,0.11076709628105164,0.11076709628105164,1e-04,0.8399999737739563,0.7321810126304626,0.7321810126304626
601,1.0,0.01507930550724268,0.01507930550724268,1e-04,0.8399999737739563,0.7281829118728638,0.7281829118728638
602,0.9900000095367432,0.027333660051226616,0.027333660051226616,1e-04,0.8399999737739563,0.7228513956069946,0.7228513956069946
603,0.9800000190734863,0.055238593369722366,0.055238593369722366,1e-04,0.8399999737739563,0.7163985371589661,0.7163985371589661
604,0.9900000095367432,0.01505405642092228,0.01505405642092228,1e-04,0.8500000238418579,0.7119821310043335,0.7119821310043335
605,0.9800000190734863,0.024599915370345116,0.024599915370345116,1e-04,0.8500000238418579,0.7087211608886719,0.7087211608886719
606,1.0,0.00857035256922245,0.00857035256922245,1e-04,0.8500000238418579,0.7062088251113892,0.7062088251113892
607,0.9900000095367432,0.03033224493265152,0.03033224493265152,1e-04,0.8500000238418579,0.7044687867164612,0.7044687867164612
608,1.0,0.013283038511872292,0.013283038511872292,1e-04,0.8500000238418579,0.7031031847000122,0.7031031847000122
609,0.9700000286102295,0.04587959870696068,0.04587959870696068,1e-04,0.8500000238418579,0.7004411220550537,0.7004411220550537
610,0.9900000095367432,0.029590971767902374,0.029590971767902374,1e-04,0.8500000238418579,0.6986749172210693,0.6986749172210693
611,0.9800000190734863,0.027908170595765114,0.027908170595765114,1e-04,0.8500000238418579,0.6951934099197388,0.6951934099197388
612,0.9900000095367432,0.038918547332286835,0.038918547332286835,1e-04,0.8600000143051147,0.6915447115898132,0.6915447115898132
613,0.9900000095367432,0.015769125893712044,0.015769125893712044,1e-04,0.8600000143051147,0.6886999011039734,0.6886999011039734
614,0.9800000190734863,0.049103669822216034,0.049103669822216034,1e-04,0.8600000143051147,0.6864296793937683,0.6864296793937683
615,0.9700000286102295,0.07902897894382477,0.07902897894382477,1e-04,0.8600000143051147,0.683759331703186,0.683759331703186
616,0.9900000095367432,0.020968148484826088,0.020968148484826088,1e-04,0.8600000143051147,0.6823476552963257,0.6823476552963257
617,0.9800000190734863,0.047240000218153,0.047240000218153,1e-04,0.8600000143051147,0.6824238300323486,0.6824238300323486
618,0.9800000190734863,0.029058387503027916,0.029058387503027916,1e-04,0.8600000143051147,0.6835065484046936,0.6835065484046936
619,0.9900000095367432,0.02491840161383152,0.02491840161383152,1e-04,0.8600000143051147,0.6854052543640137,0.6854052543640137
620,0.9599999785423279,0.13411059975624084,0.13411059975624084,1e-04,0.8500000238418579,0.6882274150848389,0.6882274150848389
621,0.9800000190734863,0.02960195392370224,0.02960195392370224,1e-04,0.8500000238418579,0.6900336742401123,0.6900336742401123
622,1.0,0.0122932568192482,0.0122932568192482,1e-04,0.8500000238418579,0.6908410787582397,0.6908410787582397
623,0.9900000095367432,0.04320463538169861,0.04320463538169861,1e-04,0.8500000238418579,0.6918747425079346,0.6918747425079346
624,0.9800000190734863,0.0444897785782814,0.0444897785782814,1e-04,0.8600000143051147,0.6932539939880371,0.6932539939880371
625,0.9700000286102295,0.04447683319449425,0.04447683319449425,1e-04,0.8600000143051147,0.6947896480560303,0.6947896480560303
626,1.0,0.013355109840631485,0.013355109840631485,1e-04,0.8600000143051147,0.6959348917007446,0.6959348917007446
627,0.9700000286102295,0.05220644921064377,0.05220644921064377,1e-04,0.8500000238418579,0.6985362768173218,0.6985362768173218
628,0.9800000190734863,0.0567074790596962,0.0567074790596962,1e-04,0.8500000238418579,0.7013297080993652,0.7013297080993652
629,0.9900000095367432,0.015324365347623825,0.015324365347623825,1e-04,0.8500000238418579,0.7043190598487854,0.7043190598487854
630,0.9800000190734863,0.043326202780008316,0.043326202780008316,1e-04,0.8500000238418579,0.706214189529419,0.706214189529419
631,0.9800000190734863,0.034780412912368774,0.034780412912368774,1e-04,0.8500000238418579,0.7092589735984802,0.7092589735984802
632,0.9800000190734863,0.05291443690657616,0.05291443690657616,1e-04,0.8500000238418579,0.7100995779037476,0.7100995779037476
633,0.9900000095367432,0.024075832217931747,0.024075832217931747,1e-04,0.8500000238418579,0.7116709351539612,0.7116709351539612
634,0.9900000095367432,0.0424644760787487,0.0424644760787487,1e-04,0.8500000238418579,0.7132450938224792,0.7132450938224792
635,1.0,0.009683403186500072,0.009683403186500072,1e-04,0.8500000238418579,0.7152584195137024,0.7152584195137024
636,0.9700000286102295,0.056263528764247894,0.056263528764247894,1e-04,0.8500000238418579,0.7174368500709534,0.7174368500709534
637,0.9700000286102295,0.05541222169995308,0.05541222169995308,1e-04,0.8500000238418579,0.7206669449806213,0.7206669449806213
638,1.0,0.015107274986803532,0.015107274986803532,1e-04,0.8500000238418579,0.7243896722793579,0.7243896722793579
639,0.9800000190734863,0.03683248907327652,0.03683248907327652,1e-04,0.8500000238418579,0.7255107164382935,0.7255107164382935
640,0.9800000190734863,0.037551917135715485,0.037551917135715485,1e-04,0.8500000238418579,0.7250755429267883,0.7250755429267883
641,1.0,0.01909036561846733,0.01909036561846733,1e-04,0.8500000238418579,0.7240004539489746,0.7240004539489746
642,0.9900000095367432,0.022182729095220566,0.022182729095220566,1e-04,0.8500000238418579,0.7221620082855225,0.7221620082855225
643,1.0,0.011003882624208927,0.011003882624208927,1e-04,0.8500000238418579,0.7208582162857056,0.7208582162857056
644,1.0,0.009307264350354671,0.009307264350354671,1e-04,0.8500000238418579,0.720197856426239,0.720197856426239
645,0.9800000190734863,0.07531377673149109,0.07531377673149109,1e-04,0.8500000238418579,0.7196270823478699,0.7196270823478699
646,0.9800000190734863,0.03842724487185478,0.03842724487185478,1e-04,0.8500000238418579,0.7221105098724365,0.7221105098724365
647,0.9800000190734863,0.054629698395729065,0.054629698395729065,1e-04,0.8500000238418579,0.7245166301727295,0.7245166301727295
648,0.9700000286102295,0.03375940024852753,0.03375940024852753,1e-04,0.8500000238418579,0.7252404689788818,0.7252404689788818
649,1.0,0.007317804731428623,0.007317804731428623,1e-04,0.8399999737739563,0.7259226441383362,0.7259226441383362
650,0.9900000095367432,0.061132095754146576,0.061132095754146576,1e-04,0.8399999737739563,0.7227624654769897,0.7227624654769897
651,0.9700000286102295,0.05250215902924538,0.05250215902924538,1e-04,0.8500000238418579,0.7193256616592407,0.7193256616592407
652,0.9800000190734863,0.028925728052854538,0.028925728052854538,1e-04,0.8399999737739563,0.7170992493629456,0.7170992493629456
653,0.9900000095367432,0.03723858669400215,0.03723858669400215,1e-04,0.8399999737739563,0.7165195941925049,0.7165195941925049
654,0.9800000190734863,0.029912585392594337,0.029912585392594337,1e-04,0.8399999737739563,0.7166754007339478,0.7166754007339478
655,0.9900000095367432,0.0321965254843235,0.0321965254843235,1e-04,0.8399999737739563,0.7175028920173645,0.7175028920173645
656,1.0,0.010981542989611626,0.010981542989611626,1e-04,0.8500000238418579,0.7181724309921265,0.7181724309921265
657,0.9599999785423279,0.05825003236532211,0.05825003236532211,1e-04,0.8399999737739563,0.7186899781227112,0.7186899781227112
658,0.9700000286102295,0.05196269974112511,0.05196269974112511,1e-04,0.8399999737739563,0.7181214094161987,0.7181214094161987
659,0.9800000190734863,0.032969407737255096,0.032969407737255096,1e-04,0.8399999737739563,0.719369113445282,0.719369113445282
660,0.9700000286102295,0.054520878940820694,0.054520878940820694,1e-04,0.8399999737739563,0.7205049991607666,0.7205049991607666
661,1.0,0.01127803698182106,0.01127803698182106,1e-04,0.8299999833106995,0.7233402729034424,0.7233402729034424
662,0.9700000286102295,0.0458228774368763,0.0458228774368763,1e-04,0.8199999928474426,0.7259965538978577,0.7259965538978577
663,0.9900000095367432,0.017066195607185364,0.017066195607185364,1e-04,0.8199999928474426,0.7285917401313782,0.7285917401313782
664,0.9700000286102295,0.07551366835832596,0.07551366835832596,1e-04,0.8199999928474426,0.7291799187660217,0.7291799187660217
665,0.9900000095367432,0.03244850039482117,0.03244850039482117,1e-04,0.8199999928474426,0.7290033102035522,0.7290033102035522
666,1.0,0.012107765302062035,0.012107765302062035,1e-04,0.8299999833106995,0.7291715741157532,0.7291715741157532
667,0.9700000286102295,0.062203921377658844,0.062203921377658844,1e-04,0.8299999833106995,0.7304466962814331,0.7304466962814331
668,1.0,0.019210629165172577,0.019210629165172577,1e-04,0.8299999833106995,0.7311139702796936,0.7311139702796936
669,1.0,0.011873316019773483,0.011873316019773483,1e-04,0.8299999833106995,0.7318772673606873,0.7318772673606873
670,0.9800000190734863,0.03575551137328148,0.03575551137328148,1e-04,0.8299999833106995,0.7330284714698792,0.7330284714698792
671,0.9800000190734863,0.0511319525539875,0.0511319525539875,1e-04,0.8299999833106995,0.7348651885986328,0.7348651885986328
672,0.9800000190734863,0.024298828095197678,0.024298828095197678,1e-04,0.8399999737739563,0.7376366257667542,0.7376366257667542
673,0.9900000095367432,0.028519535437226295,0.028519535437226295,1e-04,0.8299999833106995,0.738518476486206,0.738518476486206
674,0.9900000095367432,0.03272513300180435,0.03272513300180435,1e-04,0.8399999737739563,0.7370501756668091,0.7370501756668091
675,0.9800000190734863,0.06392808258533478,0.06392808258533478,1e-04,0.8399999737739563,0.7315502762794495,0.7315502762794495
676,1.0,0.00788174383342266,0.00788174383342266,1e-04,0.8399999737739563,0.7274799346923828,0.7274799346923828
677,0.9700000286102295,0.05898365005850792,0.05898365005850792,1e-04,0.8500000238418579,0.7260395288467407,0.7260395288467407
678,0.9700000286102295,0.06301415711641312,0.06301415711641312,1e-04,0.8500000238418579,0.7274956703186035,0.7274956703186035
679,1.0,0.018439706414937973,0.018439706414937973,1e-04,0.8399999737739563,0.7311980724334717,0.7311980724334717
680,0.9700000286102295,0.05873486399650574,0.05873486399650574,1e-04,0.8299999833106995,0.7393411993980408,0.7393411993980408
681,0.9800000190734863,0.030743516981601715,0.030743516981601715,1e-04,0.8299999833106995,0.751202404499054,0.751202404499054
682,0.9800000190734863,0.0401400625705719,0.0401400625705719,1e-04,0.8299999833106995,0.7642282247543335,0.7642282247543335
683,0.9700000286102295,0.04610993713140488,0.04610993713140488,1e-04,0.8399999737739563,0.7724893689155579,0.7724893689155579
684,0.9900000095367432,0.04352838546037674,0.04352838546037674,1e-04,0.8399999737739563,0.7747125029563904,0.7747125029563904
685,0.9900000095367432,0.035623613744974136,0.035623613744974136,1e-04,0.8500000238418579,0.7728009819984436,0.7728009819984436
686,0.9900000095367432,0.02701222337782383,0.02701222337782383,1e-04,0.8500000238418579,0.7655611634254456,0.7655611634254456
687,0.9800000190734863,0.04726164788007736,0.04726164788007736,1e-04,0.8500000238418579,0.7536496520042419,0.7536496520042419
688,0.9800000190734863,0.04421370476484299,0.04421370476484299,1e-04,0.8399999737739563,0.7448455691337585,0.7448455691337585
689,0.9900000095367432,0.048448700457811356,0.048448700457811356,1e-04,0.8500000238418579,0.7406716346740723,0.7406716346740723
690,1.0,0.011829469352960587,0.011829469352960587,1e-04,0.8500000238418579,0.7404875159263611,0.7404875159263611
691,1.0,0.0209501963108778,0.0209501963108778,1e-04,0.8600000143051147,0.7432332634925842,0.7432332634925842
692,0.9900000095367432,0.03221554309129715,0.03221554309129715,1e-04,0.8700000047683716,0.744703471660614,0.744703471660614
693,1.0,0.01593470573425293,0.01593470573425293,1e-04,0.8700000047683716,0.7462558746337891,0.7462558746337891
694,0.9800000190734863,0.03776400536298752,0.03776400536298752,1e-04,0.8700000047683716,0.7466326355934143,0.7466326355934143
695,0.9700000286102295,0.054210443049669266,0.054210443049669266,1e-04,0.8600000143051147,0.7436908483505249,0.7436908483505249
696,0.9700000286102295,0.07360179722309113,0.07360179722309113,1e-04,0.8399999737739563,0.7419739365577698,0.7419739365577698
697,0.9800000190734863,0.11776189506053925,0.11776189506053925,1e-04,0.8399999737739563,0.7465679049491882,0.7465679049491882
698,1.0,0.02579113282263279,0.02579113282263279,1e-04,0.8399999737739563,0.755897045135498,0.755897045135498
699,1.0,0.01583796553313732,0.01583796553313732,1e-04,0.8500000238418579,0.7664035558700562,0.7664035558700562
700,0.9800000190734863,0.03774673864245415,0.03774673864245415,1e-04,0.8299999833106995,0.771389901638031,0.771389901638031
701,0.9800000190734863,0.05570540949702263,0.05570540949702263,1e-04,0.8399999737739563,0.7683870792388916,0.7683870792388916
702,0.9900000095367432,0.03748222813010216,0.03748222813010216,1e-04,0.8399999737739563,0.761976957321167,0.761976957321167
703,1.0,0.012752796523272991,0.012752796523272991,1e-04,0.8399999737739563,0.7543047070503235,0.7543047070503235
704,0.9800000190734863,0.04703180864453316,0.04703180864453316,1e-04,0.8399999737739563,0.7439025640487671,0.7439025640487671
705,0.9800000190734863,0.03440260514616966,0.03440260514616966,1e-04,0.8399999737739563,0.7356988787651062,0.7356988787651062
706,0.9800000190734863,0.0674244612455368,0.0674244612455368,1e-04,0.8399999737739563,0.7309953570365906,0.7309953570365906
707,0.9800000190734863,0.039105478674173355,0.039105478674173355,1e-04,0.8500000238418579,0.727867841720581,0.727867841720581
708,0.9800000190734863,0.04617464914917946,0.04617464914917946,1e-04,0.8600000143051147,0.7269077897071838,0.7269077897071838
709,0.9900000095367432,0.026135725900530815,0.026135725900530815,1e-04,0.8600000143051147,0.7260140180587769,0.7260140180587769
710,0.9700000286102295,0.038608368486166,0.038608368486166,1e-04,0.8500000238418579,0.724027156829834,0.724027156829834
711,0.9800000190734863,0.05295982211828232,0.05295982211828232,1e-04,0.8500000238418579,0.7235462665557861,0.7235462665557861
712,0.9900000095367432,0.014963103458285332,0.014963103458285332,1e-04,0.8500000238418579,0.7239133715629578,0.7239133715629578
713,0.9900000095367432,0.028668716549873352,0.028668716549873352,1e-04,0.8399999737739563,0.7258930802345276,0.7258930802345276
714,0.9700000286102295,0.060604166239500046,0.060604166239500046,1e-04,0.8399999737739563,0.7278650403022766,0.7278650403022766
715,0.9599999785423279,0.05778474733233452,0.05778474733233452,1e-04,0.8399999737739563,0.7278093695640564,0.7278093695640564
716,0.9800000190734863,0.08482518047094345,0.08482518047094345,1e-04,0.8399999737739563,0.7246955633163452,0.7246955633163452
717,0.9900000095367432,0.03278238698840141,0.03278238698840141,1e-04,0.8500000238418579,0.7232069969177246,0.7232069969177246
718,1.0,0.007851073518395424,0.007851073518395424,1e-04,0.8500000238418579,0.7223232388496399,0.7223232388496399
719,0.9800000190734863,0.03889413923025131,0.03889413923025131,1e-04,0.8500000238418579,0.7216267585754395,0.7216267585754395
720,0.9900000095367432,0.019096868112683296,0.019096868112683296,1e-04,0.8500000238418579,0.7213243246078491,0.7213243246078491
721,1.0,0.01308153010904789,0.01308153010904789,1e-04,0.8500000238418579,0.7212947010993958,0.7212947010993958
722,0.9800000190734863,0.041940513998270035,0.041940513998270035,1e-04,0.8500000238418579,0.7200378179550171,0.7200378179550171
723,1.0,0.012847875244915485,0.012847875244915485,1e-04,0.8500000238418579,0.7196393013000488,0.7196393013000488
724,0.9900000095367432,0.02248387783765793,0.02248387783765793,1e-04,0.8500000238418579,0.718567430973053,0.718567430973053
725,1.0,0.016911661252379417,0.016911661252379417,1e-04,0.8500000238418579,0.7179028987884521,0.7179028987884521
726,0.9900000095367432,0.038348425179719925,0.038348425179719925,1e-04,0.8500000238418579,0.7193992137908936,0.7193992137908936
727,0.9800000190734863,0.036773327738046646,0.036773327738046646,1e-04,0.8500000238418579,0.7199795246124268,0.7199795246124268
728,0.9800000190734863,0.02688588947057724,0.02688588947057724,1e-04,0.8299999833106995,0.7197734713554382,0.7197734713554382
729,0.9800000190734863,0.06420186161994934,0.06420186161994934,1e-04,0.8500000238418579,0.7149372696876526,0.7149372696876526
730,1.0,0.017700310796499252,0.017700310796499252,1e-04,0.8500000238418579,0.7107409834861755,0.7107409834861755
731,0.9800000190734863,0.025246091187000275,0.025246091187000275,1e-04,0.8500000238418579,0.708554744720459,0.708554744720459
732,1.0,0.02022003009915352,0.02022003009915352,1e-04,0.8500000238418579,0.7072171568870544,0.7072171568870544
733,0.9700000286102295,0.06800899654626846,0.06800899654626846,1e-04,0.8600000143051147,0.7070909738540649,0.7070909738540649
734,1.0,0.018504055216908455,0.018504055216908455,1e-04,0.8500000238418579,0.7072609663009644,0.7072609663009644
735,0.9900000095367432,0.03062966838479042,0.03062966838479042,1e-04,0.8500000238418579,0.7073786854743958,0.7073786854743958
736,0.9700000286102295,0.05573950335383415,0.05573950335383415,1e-04,0.8500000238418579,0.7081687450408936,0.7081687450408936
737,0.949999988079071,0.12080676853656769,0.12080676853656769,1e-04,0.8500000238418579,0.7069770693778992,0.7069770693778992
738,0.9900000095367432,0.023150866851210594,0.023150866851210594,1e-04,0.8500000238418579,0.7060427665710449,0.7060427665710449
739,0.9700000286102295,0.04029582440853119,0.04029582440853119,1e-04,0.8600000143051147,0.7048675417900085,0.7048675417900085
740,0.9900000095367432,0.03371790423989296,0.03371790423989296,1e-04,0.8600000143051147,0.7046228647232056,0.7046228647232056
741,0.9900000095367432,0.0539715476334095,0.0539715476334095,1e-04,0.8600000143051147,0.7043042182922363,0.7043042182922363
742,0.9900000095367432,0.015586142428219318,0.015586142428219318,1e-04,0.8500000238418579,0.7055840492248535,0.7055840492248535
743,1.0,0.012890751473605633,0.012890751473605633,1e-04,0.8500000238418579,0.7069809436798096,0.7069809436798096
744,0.9900000095367432,0.04107378423213959,0.04107378423213959,1e-04,0.8500000238418579,0.7088153958320618,0.7088153958320618
745,0.9800000190734863,0.05240969732403755,0.05240969732403755,1e-04,0.8500000238418579,0.7098936438560486,0.7098936438560486
746,0.9900000095367432,0.03840373083949089,0.03840373083949089,1e-04,0.8600000143051147,0.7107540369033813,0.7107540369033813
747,1.0,0.009221510961651802,0.009221510961651802,1e-04,0.8600000143051147,0.7126702666282654,0.7126702666282654
748,0.9700000286102295,0.05295219272375107,0.05295219272375107,1e-04,0.8399999737739563,0.7144128680229187,0.7144128680229187
749,1.0,0.012249202467501163,0.012249202467501163,1e-04,0.8399999737739563,0.7167834639549255,0.7167834639549255
750,0.9900000095367432,0.023950986564159393,0.023950986564159393,1e-04,0.8399999737739563,0.7186968326568604,0.7186968326568604
751,0.9900000095367432,0.031110964715480804,0.031110964715480804,1e-04,0.8399999737739563,0.7207769155502319,0.7207769155502319
752,1.0,0.016978425905108452,0.016978425905108452,1e-04,0.8399999737739563,0.7224529981613159,0.7224529981613159
753,0.9800000190734863,0.025332750752568245,0.025332750752568245,1e-04,0.8399999737739563,0.7238906025886536,0.7238906025886536
754,0.9900000095367432,0.017543332651257515,0.017543332651257515,1e-04,0.8399999737739563,0.7271101474761963,0.7271101474761963
755,0.9900000095367432,0.030630121007561684,0.030630121007561684,1e-04,0.8399999737739563,0.7309306263923645,0.7309306263923645
756,0.9900000095367432,0.024526292458176613,0.024526292458176613,1e-04,0.8399999737739563,0.733644425868988,0.733644425868988
757,0.9800000190734863,0.0463438481092453,0.0463438481092453,1e-04,0.8399999737739563,0.7321529984474182,0.7321529984474182
758,0.9800000190734863,0.0557423010468483,0.0557423010468483,1e-04,0.8399999737739563,0.7313646078109741,0.7313646078109741
759,0.949999988079071,0.10599979758262634,0.10599979758262634,1e-04,0.8199999928474426,0.7347051501274109,0.7347051501274109
760,0.9700000286102295,0.058306366205215454,0.058306366205215454,1e-04,0.8199999928474426,0.7330664992332458,0.7330664992332458
761,0.9900000095367432,0.04343342408537865,0.04343342408537865,1e-04,0.8199999928474426,0.7267918586730957,0.7267918586730957
762,0.9599999785423279,0.060251642018556595,0.060251642018556595,1e-04,0.8299999833106995,0.7198540568351746,0.7198540568351746
763,0.9800000190734863,0.035723913460969925,0.035723913460969925,1e-04,0.8399999737739563,0.7131878137588501,0.7131878137588501
764,0.9900000095367432,0.01865503191947937,0.01865503191947937,1e-04,0.8500000238418579,0.7092301249504089,0.7092301249504089
765,0.9900000095367432,0.026472661644220352,0.026472661644220352,1e-04,0.8600000143051147,0.7071920037269592,0.7071920037269592
766,0.9800000190734863,0.03584853932261467,0.03584853932261467,1e-04,0.8600000143051147,0.7064893841743469,0.7064893841743469
767,0.9800000190734863,0.03345869481563568,0.03345869481563568,1e-04,0.8600000143051147,0.7072699666023254,0.7072699666023254
768,1.0,0.010675727389752865,0.010675727389752865,1e-04,0.8600000143051147,0.7089495658874512,0.7089495658874512
769,1.0,0.009700266644358635,0.009700266644358635,1e-04,0.8600000143051147,0.7102094292640686,0.7102094292640686
770,1.0,0.010370436124503613,0.010370436124503613,1e-04,0.8500000238418579,0.7118209600448608,0.7118209600448608
771,0.9800000190734863,0.05696980655193329,0.05696980655193329,1e-04,0.8399999737739563,0.7193599939346313,0.7193599939346313
772,1.0,0.009813043288886547,0.009813043288886547,1e-04,0.8299999833106995,0.728298008441925,0.728298008441925
773,0.9900000095367432,0.024129904806613922,0.024129904806613922,1e-04,0.8299999833106995,0.733574390411377,0.733574390411377
774,0.9900000095367432,0.020602429285645485,0.020602429285645485,1e-04,0.8299999833106995,0.7361396551132202,0.7361396551132202
775,0.9900000095367432,0.07185249775648117,0.07185249775648117,1e-04,0.8299999833106995,0.732177734375,0.732177734375
776,0.9700000286102295,0.06117907166481018,0.06117907166481018,1e-04,0.8299999833106995,0.7258077263832092,0.7258077263832092
777,0.9900000095367432,0.027588961645960808,0.027588961645960808,1e-04,0.8399999737739563,0.7189927697181702,0.7189927697181702
778,1.0,0.01529096718877554,0.01529096718877554,1e-04,0.8500000238418579,0.712881326675415,0.712881326675415
779,1.0,0.009251785464584827,0.009251785464584827,1e-04,0.8600000143051147,0.7094303369522095,0.7094303369522095
780,1.0,0.012647680006921291,0.012647680006921291,1e-04,0.8600000143051147,0.7073778510093689,0.7073778510093689
781,0.9900000095367432,0.026334820315241814,0.026334820315241814,1e-04,0.8600000143051147,0.7057581543922424,0.7057581543922424
782,0.9800000190734863,0.04694478213787079,0.04694478213787079,1e-04,0.8600000143051147,0.7053264379501343,0.7053264379501343
783,0.9900000095367432,0.044642459601163864,0.044642459601163864,1e-04,0.8600000143051147,0.7064545154571533,0.7064545154571533
784,0.9900000095367432,0.023650722578167915,0.023650722578167915,1e-04,0.8600000143051147,0.7068527936935425,0.7068527936935425
785,0.9800000190734863,0.039500392973423004,0.039500392973423004,1e-04,0.8600000143051147,0.7079154849052429,0.7079154849052429
786,1.0,0.00992085412144661,0.00992085412144661,1e-04,0.8500000238418579,0.7085026502609253,0.7085026502609253
787,0.949999988079071,0.06609135866165161,0.06609135866165161,1e-04,0.8600000143051147,0.706524670124054,0.706524670124054
788,0.9800000190734863,0.13778802752494812,0.13778802752494812,1e-04,0.8600000143051147,0.7064664959907532,0.7064664959907532
789,0.9900000095367432,0.022205132991075516,0.022205132991075516,1e-04,0.8600000143051147,0.7082870602607727,0.7082870602607727
790,0.9900000095367432,0.026649421080946922,0.026649421080946922,1e-04,0.8399999737739563,0.7103663682937622,0.7103663682937622
791,0.9800000190734863,0.04508653283119202,0.04508653283119202,1e-04,0.8399999737739563,0.7132109999656677,0.7132109999656677
792,0.9900000095367432,0.06146011874079704,0.06146011874079704,1e-04,0.8299999833106995,0.713019609451294,0.713019609451294
793,0.9900000095367432,0.03723637014627457,0.03723637014627457,1e-04,0.8299999833106995,0.7140935659408569,0.7140935659408569
794,0.9700000286102295,0.04497553035616875,0.04497553035616875,1e-04,0.8199999928474426,0.714618980884552,0.714618980884552
795,0.9900000095367432,0.03530679643154144,0.03530679643154144,1e-04,0.8199999928474426,0.7142611742019653,0.7142611742019653
796,1.0,0.009723166935145855,0.009723166935145855,1e-04,0.8199999928474426,0.7138164639472961,0.7138164639472961
797,1.0,0.010623867623507977,0.010623867623507977,1e-04,0.8199999928474426,0.7137431502342224,0.7137431502342224
798,0.9900000095367432,0.02109840326011181,0.02109840326011181,1e-04,0.8199999928474426,0.7148852348327637,0.7148852348327637
799,0.9900000095367432,0.02122066169977188,0.02122066169977188,1e-04,0.8199999928474426,0.7135522961616516,0.7135522961616516
800,0.9900000095367432,0.04789182171225548,0.04789182171225548,1e-04,0.8399999737739563,0.7097671627998352,0.7097671627998352
801,1.0,0.013892467133700848,0.013892467133700848,1e-04,0.8500000238418579,0.7076295614242554,0.7076295614242554
802,0.9800000190734863,0.055097922682762146,0.055097922682762146,1e-04,0.8600000143051147,0.7044128179550171,0.7044128179550171
803,0.9700000286102295,0.03073776513338089,0.03073776513338089,1e-04,0.8600000143051147,0.7059810161590576,0.7059810161590576
804,0.9700000286102295,0.040964819490909576,0.040964819490909576,1e-04,0.8500000238418579,0.7087504863739014,0.7087504863739014
805,1.0,0.02779441885650158,0.02779441885650158,1e-04,0.8500000238418579,0.7115291357040405,0.7115291357040405
806,0.9900000095367432,0.022612476721405983,0.022612476721405983,1e-04,0.8500000238418579,0.7137841582298279,0.7137841582298279
807,1.0,0.008988266810774803,0.008988266810774803,1e-04,0.8500000238418579,0.7154514193534851,0.7154514193534851
808,0.9900000095367432,0.023640073835849762,0.023640073835849762,1e-04,0.8500000238418579,0.716767430305481,0.716767430305481
809,0.9800000190734863,0.04367963224649429,0.04367963224649429,1e-04,0.8600000143051147,0.7177987098693848,0.7177987098693848
810,0.9900000095367432,0.029831675812602043,0.029831675812602043,1e-04,0.8500000238418579,0.7192297577857971,0.7192297577857971
811,0.9800000190734863,0.0314670167863369,0.0314670167863369,1e-04,0.8500000238418579,0.7236952185630798,0.7236952185630798
812,0.9700000286102295,0.05841171741485596,0.05841171741485596,1e-04,0.8199999928474426,0.7326629161834717,0.7326629161834717
813,1.0,0.012008626013994217,0.012008626013994217,1e-04,0.8199999928474426,0.7422187924385071,0.7422187924385071
814,1.0,0.013167580589652061,0.013167580589652061,1e-04,0.8199999928474426,0.7490688562393188,0.7490688562393188
815,0.9900000095367432,0.03201768547296524,0.03201768547296524,1e-04,0.8199999928474426,0.7586424946784973,0.7586424946784973
816,1.0,0.004488897509872913,0.004488897509872913,1e-04,0.8199999928474426,0.7675291299819946,0.7675291299819946
817,0.9700000286102295,0.06772472709417343,0.06772472709417343,1e-04,0.8199999928474426,0.7643157243728638,0.7643157243728638
818,1.0,0.01249599363654852,0.01249599363654852,1e-04,0.8199999928474426,0.75840163230896,0.75840163230896
819,0.9900000095367432,0.027229726314544678,0.027229726314544678,1e-04,0.8199999928474426,0.7481343150138855,0.7481343150138855
820,0.9599999785423279,0.06724480539560318,0.06724480539560318,1e-04,0.8199999928474426,0.7371847629547119,0.7371847629547119
821,0.9900000095367432,0.021931909024715424,0.021931909024715424,1e-04,0.8500000238418579,0.7320325970649719,0.7320325970649719
822,0.9700000286102295,0.08410321921110153,0.08410321921110153,1e-04,0.8500000238418579,0.7313385009765625,0.7313385009765625
823,0.9800000190734863,0.08854195475578308,0.08854195475578308,1e-04,0.8500000238418579,0.7282559275627136,0.7282559275627136
824,0.9900000095367432,0.04594753310084343,0.04594753310084343,1e-04,0.8600000143051147,0.7274124026298523,0.7274124026298523
825,1.0,0.03224977105855942,0.03224977105855942,1e-04,0.8500000238418579,0.7285681962966919,0.7285681962966919
826,0.9900000095367432,0.025319352746009827,0.025319352746009827,1e-04,0.8500000238418579,0.7296493649482727,0.7296493649482727
827,0.9900000095367432,0.020635059103369713,0.020635059103369713,1e-04,0.8500000238418579,0.7308155298233032,0.7308155298233032
828,0.9900000095367432,0.025402897968888283,0.025402897968888283,1e-04,0.8500000238418579,0.73244309425354,0.73244309425354
829,1.0,0.027424778789281845,0.027424778789281845,1e-04,0.8600000143051147,0.7346231937408447,0.7346231937408447
830,1.0,0.016177188605070114,0.016177188605070114,1e-04,0.8500000238418579,0.7378776669502258,0.7378776669502258
831,0.9700000286102295,0.0883093848824501,0.0883093848824501,1e-04,0.8500000238418579,0.7425036430358887,0.7425036430358887
832,0.9800000190734863,0.03461573272943497,0.03461573272943497,1e-04,0.8500000238418579,0.7460880279541016,0.7460880279541016
833,0.9900000095367432,0.029176773503422737,0.029176773503422737,1e-04,0.8399999737739563,0.7498832941055298,0.7498832941055298
834,0.9900000095367432,0.024878963828086853,0.024878963828086853,1e-04,0.8399999737739563,0.7543419599533081,0.7543419599533081
835,0.9800000190734863,0.03428264334797859,0.03428264334797859,1e-04,0.8399999737739563,0.762351393699646,0.762351393699646
836,0.9900000095367432,0.04945804551243782,0.04945804551243782,1e-04,0.8299999833106995,0.7750157117843628,0.7750157117843628
837,0.9900000095367432,0.028648994863033295,0.028648994863033295,1e-04,0.8199999928474426,0.7858049869537354,0.7858049869537354
838,1.0,0.007251666393131018,0.007251666393131018,1e-04,0.8199999928474426,0.7962190508842468,0.7962190508842468
839,0.9900000095367432,0.037450019270181656,0.037450019270181656,1e-04,0.8199999928474426,0.8010045886039734,0.8010045886039734
840,0.9599999785423279,0.10319924354553223,0.10319924354553223,1e-04,0.8199999928474426,0.795806348323822,0.795806348323822
841,0.9900000095367432,0.02285507135093212,0.02285507135093212,1e-04,0.8299999833106995,0.79149329662323,0.79149329662323
842,1.0,0.007434030994772911,0.007434030994772911,1e-04,0.8299999833106995,0.7872815132141113,0.7872815132141113
843,0.9900000095367432,0.02786250039935112,0.02786250039935112,1e-04,0.8399999737739563,0.7870755195617676,0.7870755195617676
844,1.0,0.012038599699735641,0.012038599699735641,1e-04,0.8399999737739563,0.7865758538246155,0.7865758538246155
845,1.0,0.015591711737215519,0.015591711737215519,1e-04,0.8399999737739563,0.7850847840309143,0.7850847840309143
846,1.0,0.008669254370033741,0.008669254370033741,1e-04,0.8399999737739563,0.784101665019989,0.784101665019989
847,1.0,0.011504273861646652,0.011504273861646652,1e-04,0.8399999737739563,0.783516526222229,0.783516526222229
848,0.9700000286102295,0.03781217709183693,0.03781217709183693,1e-04,0.8500000238418579,0.7842980027198792,0.7842980027198792
849,1.0,0.022826503962278366,0.022826503962278366,1e-04,0.8500000238418579,0.7850074172019958,0.7850074172019958
850,1.0,0.005362498573958874,0.005362498573958874,1e-04,0.8500000238418579,0.7857424020767212,0.7857424020767212
851,0.9800000190734863,0.05345308408141136,0.05345308408141136,1e-04,0.8500000238418579,0.7870683073997498,0.7870683073997498
852,1.0,0.017942452803254128,0.017942452803254128,1e-04,0.8500000238418579,0.790834367275238,0.790834367275238
853,1.0,0.007481126580387354,0.007481126580387354,1e-04,0.8399999737739563,0.7951499223709106,0.7951499223709106
854,1.0,0.005170347169041634,0.005170347169041634,1e-04,0.8299999833106995,0.7999605536460876,0.7999605536460876
855,1.0,0.004252231679856777,0.004252231679856777,1e-04,0.8299999833106995,0.8051408529281616,0.8051408529281616
856,0.9900000095367432,0.033445172011852264,0.033445172011852264,1e-04,0.8299999833106995,0.8100284337997437,0.8100284337997437
857,0.9800000190734863,0.04217587038874626,0.04217587038874626,1e-04,0.8299999833106995,0.8129316568374634,0.8129316568374634
858,1.0,0.022101446986198425,0.022101446986198425,1e-04,0.8299999833106995,0.814597487449646,0.814597487449646
859,1.0,0.0065935105085372925,0.0065935105085372925,1e-04,0.8299999833106995,0.8170884847640991,0.8170884847640991
860,0.9900000095367432,0.031117623671889305,0.031117623671889305,1e-04,0.8299999833106995,0.8160167932510376,0.8160167932510376
861,0.9599999785423279,0.09259340167045593,0.09259340167045593,1e-04,0.8299999833106995,0.8080436587333679,0.8080436587333679
862,1.0,0.01065809465944767,0.01065809465944767,1e-04,0.8399999737739563,0.8024626970291138,0.8024626970291138
863,1.0,0.012332605198025703,0.012332605198025703,1e-04,0.8500000238418579,0.7993695139884949,0.7993695139884949
864,0.9900000095367432,0.012390214018523693,0.012390214018523693,1e-04,0.8500000238418579,0.7976406812667847,0.7976406812667847
865,0.9800000190734863,0.03966797515749931,0.03966797515749931,1e-04,0.8500000238418579,0.7946687936782837,0.7946687936782837
866,0.9599999785423279,0.05422506853938103,0.05422506853938103,1e-04,0.8399999737739563,0.7897992134094238,0.7897992134094238
867,0.9800000190734863,0.0508468821644783,0.0508468821644783,1e-04,0.8399999737739563,0.7872642278671265,0.7872642278671265
868,0.9900000095367432,0.023431122303009033,0.023431122303009033,1e-04,0.8399999737739563,0.7847307324409485,0.7847307324409485
869,1.0,0.010626576840877533,0.010626576840877533,1e-04,0.8399999737739563,0.7824299335479736,0.7824299335479736
870,0.9800000190734863,0.04523023962974548,0.04523023962974548,1e-04,0.8399999737739563,0.7788684368133545,0.7788684368133545
871,0.9900000095367432,0.03144152835011482,0.03144152835011482,1e-04,0.8500000238418579,0.7755075097084045,0.7755075097084045
872,1.0,0.021888509392738342,0.021888509392738342,1e-04,0.8500000238418579,0.7740824222564697,0.7740824222564697
873,0.9900000095367432,0.029863648116588593,0.029863648116588593,1e-04,0.8500000238418579,0.7742558121681213,0.7742558121681213
874,0.9700000286102295,0.06501705944538116,0.06501705944538116,1e-04,0.8399999737739563,0.7786679267883301,0.7786679267883301
875,1.0,0.008453616872429848,0.008453616872429848,1e-04,0.8299999833106995,0.7852369546890259,0.7852369546890259
876,0.9900000095367432,0.015945695340633392,0.015945695340633392,1e-04,0.8199999928474426,0.7908979058265686,0.7908979058265686
877,0.9900000095367432,0.024539461359381676,0.024539461359381676,1e-04,0.8199999928474426,0.793476939201355,0.793476939201355
878,0.9800000190734863,0.05541431903839111,0.05541431903839111,1e-04,0.8199999928474426,0.7969096899032593,0.7969096899032593
879,0.9900000095367432,0.019191868603229523,0.019191868603229523,1e-04,0.8199999928474426,0.8028145432472229,0.8028145432472229
880,0.9900000095367432,0.025239303708076477,0.025239303708076477,1e-04,0.8199999928474426,0.802833080291748,0.802833080291748
881,0.9800000190734863,0.03724503889679909,0.03724503889679909,1e-04,0.8199999928474426,0.7990520000457764,0.7990520000457764
882,1.0,0.014865065924823284,0.014865065924823284,1e-04,0.8299999833106995,0.7951780557632446,0.7951780557632446
883,0.9599999785423279,0.06974904239177704,0.06974904239177704,1e-04,0.8299999833106995,0.7920567989349365,0.7920567989349365
884,0.9900000095367432,0.04073908179998398,0.04073908179998398,1e-04,0.8399999737739563,0.7871326208114624,0.7871326208114624
885,0.9599999785423279,0.09723414480686188,0.09723414480686188,1e-04,0.8500000238418579,0.7817598581314087,0.7817598581314087
886,1.0,0.012886433862149715,0.012886433862149715,1e-04,0.8500000238418579,0.7790442705154419,0.7790442705154419
887,0.9900000095367432,0.039690081030130386,0.039690081030130386,1e-04,0.8600000143051147,0.7782818675041199,0.7782818675041199
888,0.9900000095367432,0.023242078721523285,0.023242078721523285,1e-04,0.8500000238418579,0.7798917889595032,0.7798917889595032
889,0.9900000095367432,0.025570416823029518,0.025570416823029518,1e-04,0.8500000238418579,0.7819657921791077,0.7819657921791077
890,0.9800000190734863,0.05178608000278473,0.05178608000278473,1e-04,0.8500000238418579,0.7818825244903564,0.7818825244903564
891,0.9800000190734863,0.03431005775928497,0.03431005775928497,1e-04,0.8500000238418579,0.7793705463409424,0.7793705463409424
892,0.9700000286102295,0.0715436115860939,0.0715436115860939,1e-04,0.8600000143051147,0.7735641002655029,0.7735641002655029
893,0.9900000095367432,0.01884802058339119,0.01884802058339119,1e-04,0.8500000238418579,0.7724979519844055,0.7724979519844055
894,1.0,0.006961638107895851,0.006961638107895851,1e-04,0.8399999737739563,0.7751097679138184,0.7751097679138184
895,0.9900000095367432,0.029313288629055023,0.029313288629055023,1e-04,0.8399999737739563,0.7815276980400085,0.7815276980400085
896,0.9700000286102295,0.042923703789711,0.042923703789711,1e-04,0.8299999833106995,0.7886085510253906,0.7886085510253906
897,0.9800000190734863,0.0327778160572052,0.0327778160572052,1e-04,0.8199999928474426,0.8008294701576233,0.8008294701576233
898,0.9900000095367432,0.018052179366350174,0.018052179366350174,1e-04,0.8199999928474426,0.81182461977005,0.81182461977005
899,0.9800000190734863,0.07242617756128311,0.07242617756128311,1e-04,0.8199999928474426,0.8108038902282715,0.8108038902282715
900,0.9900000095367432,0.02266032062470913,0.02266032062470913,1e-04,0.8199999928474426,0.8037752509117126,0.8037752509117126
901,0.9800000190734863,0.05618467926979065,0.05618467926979065,1e-04,0.8199999928474426,0.7936151027679443,0.7936151027679443
902,0.9800000190734863,0.08991950005292892,0.08991950005292892,1e-04,0.8299999833106995,0.7758386731147766,0.7758386731147766
903,1.0,0.003799357218667865,0.003799357218667865,1e-04,0.8399999737739563,0.7633010149002075,0.7633010149002075
904,0.9900000095367432,0.02961702272295952,0.02961702272295952,1e-04,0.8500000238418579,0.7549133896827698,0.7549133896827698
905,1.0,0.009629158303141594,0.009629158303141594,1e-04,0.8600000143051147,0.7495030164718628,0.7495030164718628
906,1.0,0.01757921278476715,0.01757921278476715,1e-04,0.8600000143051147,0.7469421625137329,0.7469421625137329
907,0.9900000095367432,0.03123205341398716,0.03123205341398716,1e-04,0.8600000143051147,0.7461750507354736,0.7461750507354736
908,1.0,0.007732397876679897,0.007732397876679897,1e-04,0.8600000143051147,0.74592125415802,0.74592125415802
909,0.9800000190734863,0.056304220110177994,0.056304220110177994,1e-04,0.8600000143051147,0.7457676529884338,0.7457676529884338
910,0.9700000286102295,0.08745867013931274,0.08745867013931274,1e-04,0.8600000143051147,0.7466111183166504,0.7466111183166504
911,1.0,0.013848535716533661,0.013848535716533661,1e-04,0.8600000143051147,0.7479144930839539,0.7479144930839539
912,1.0,0.007154806982725859,0.007154806982725859,1e-04,0.8600000143051147,0.7493074536323547,0.7493074536323547
913,0.9900000095367432,0.017480546608567238,0.017480546608567238,1e-04,0.8600000143051147,0.7508707642555237,0.7508707642555237
914,1.0,0.011345874518156052,0.011345874518156052,1e-04,0.8600000143051147,0.7523414492607117,0.7523414492607117
915,0.9900000095367432,0.046064406633377075,0.046064406633377075,1e-04,0.8500000238418579,0.7530098557472229,0.7530098557472229
916,0.9900000095367432,0.027909355238080025,0.027909355238080025,1e-04,0.8500000238418579,0.7547599077224731,0.7547599077224731
917,1.0,0.01829136162996292,0.01829136162996292,1e-04,0.8500000238418579,0.7570403218269348,0.7570403218269348
918,0.9599999785423279,0.07672371715307236,0.07672371715307236,1e-04,0.8500000238418579,0.7562292218208313,0.7562292218208313
919,0.9900000095367432,0.023718705400824547,0.023718705400824547,1e-04,0.8500000238418579,0.7566190361976624,0.7566190361976624
920,0.9800000190734863,0.04667520523071289,0.04667520523071289,1e-04,0.8500000238418579,0.7556511163711548,0.7556511163711548
921,1.0,0.014652545563876629,0.014652545563876629,1e-04,0.8500000238418579,0.7552868127822876,0.7552868127822876
922,1.0,0.009754947386682034,0.009754947386682034,1e-04,0.8500000238418579,0.7555595636367798,0.7555595636367798
923,1.0,0.01376305427402258,0.01376305427402258,1e-04,0.8399999737739563,0.7566275000572205,0.7566275000572205
924,1.0,0.025139622390270233,0.025139622390270233,1e-04,0.8299999833106995,0.7572850584983826,0.7572850584983826
925,0.9800000190734863,0.05593355745077133,0.05593355745077133,1e-04,0.8299999833106995,0.755492091178894,0.755492091178894
926,0.9700000286102295,0.042240094393491745,0.042240094393491745,1e-04,0.8500000238418579,0.751160204410553,0.751160204410553
927,0.9900000095367432,0.03345460444688797,0.03345460444688797,1e-04,0.8500000238418579,0.7493122220039368,0.7493122220039368
928,0.9900000095367432,0.040680404752492905,0.040680404752492905,1e-04,0.8500000238418579,0.7472388744354248,0.7472388744354248
929,0.9900000095367432,0.05489274114370346,0.05489274114370346,1e-04,0.8500000238418579,0.7458044290542603,0.7458044290542603
930,1.0,0.01124430913478136,0.01124430913478136,1e-04,0.8500000238418579,0.7452561855316162,0.7452561855316162
931,1.0,0.015903130173683167,0.015903130173683167,1e-04,0.8600000143051147,0.7455379366874695,0.7455379366874695
932,0.9900000095367432,0.02132716216146946,0.02132716216146946,1e-04,0.8500000238418579,0.7464309930801392,0.7464309930801392
933,0.9900000095367432,0.040991589426994324,0.040991589426994324,1e-04,0.8500000238418579,0.7474393248558044,0.7474393248558044
934,0.9700000286102295,0.06699895113706589,0.06699895113706589,1e-04,0.8399999737739563,0.7523912787437439,0.7523912787437439
935,0.9900000095367432,0.02232123352587223,0.02232123352587223,1e-04,0.8399999737739563,0.7598910331726074,0.7598910331726074
936,1.0,0.028284600004553795,0.028284600004553795,1e-04,0.8199999928474426,0.7682561278343201,0.7682561278343201
937,0.9900000095367432,0.027433965355157852,0.027433965355157852,1e-04,0.8199999928474426,0.7753949761390686,0.7753949761390686
938,0.9800000190734863,0.0634809285402298,0.0634809285402298,1e-04,0.8199999928474426,0.7818853259086609,0.7818853259086609
939,0.9800000190734863,0.03621869161725044,0.03621869161725044,1e-04,0.8299999833106995,0.786906361579895,0.786906361579895
940,1.0,0.010534076951444149,0.010534076951444149,1e-04,0.8299999833106995,0.7908153533935547,0.7908153533935547
941,0.9900000095367432,0.02756570093333721,0.02756570093333721,1e-04,0.8299999833106995,0.7876307964324951,0.7876307964324951
942,0.9900000095367432,0.029210934415459633,0.029210934415459633,1e-04,0.8299999833106995,0.7832781076431274,0.7832781076431274
943,1.0,0.021106310188770294,0.021106310188770294,1e-04,0.8199999928474426,0.7785014510154724,0.7785014510154724
944,0.9900000095367432,0.017199097201228142,0.017199097201228142,1e-04,0.8299999833106995,0.7718781232833862,0.7718781232833862
945,0.9800000190734863,0.051888979971408844,0.051888979971408844,1e-04,0.8299999833106995,0.7708680033683777,0.7708680033683777
946,0.9800000190734863,0.054073940962553024,0.054073940962553024,1e-04,0.8399999737739563,0.7693784832954407,0.7693784832954407
947,0.9900000095367432,0.048795413225889206,0.048795413225889206,1e-04,0.8399999737739563,0.7655754089355469,0.7655754089355469
948,0.9900000095367432,0.01564084365963936,0.01564084365963936,1e-04,0.8399999737739563,0.7642190456390381,0.7642190456390381
949,1.0,0.014283716678619385,0.014283716678619385,1e-04,0.8399999737739563,0.7641870379447937,0.7641870379447937
950,1.0,0.006525220815092325,0.006525220815092325,1e-04,0.8399999737739563,0.7649111747741699,0.7649111747741699
951,0.9900000095367432,0.01877511665225029,0.01877511665225029,1e-04,0.8399999737739563,0.7660338878631592,0.7660338878631592
952,0.9900000095367432,0.032038744539022446,0.032038744539022446,1e-04,0.8399999737739563,0.7684662342071533,0.7684662342071533
953,0.9800000190734863,0.03951849415898323,0.03951849415898323,1e-04,0.8399999737739563,0.768683910369873,0.768683910369873
954,0.9700000286102295,0.07062593102455139,0.07062593102455139,1e-04,0.8399999737739563,0.7695253491401672,0.7695253491401672
955,0.9900000095367432,0.027630794793367386,0.027630794793367386,1e-04,0.8299999833106995,0.7712963223457336,0.7712963223457336
956,0.9900000095367432,0.02359514683485031,0.02359514683485031,1e-04,0.8299999833106995,0.7772658467292786,0.7772658467292786
957,0.9900000095367432,0.017701134085655212,0.017701134085655212,1e-04,0.8199999928474426,0.7798963189125061,0.7798963189125061
958,1.0,0.012201586738228798,0.012201586738228798,1e-04,0.8199999928474426,0.7823055386543274,0.7823055386543274
959,0.9599999785423279,0.10834919661283493,0.10834919661283493,1e-04,0.8199999928474426,0.7780283093452454,0.7780283093452454
960,0.9900000095367432,0.04917542636394501,0.04917542636394501,1e-04,0.8199999928474426,0.7686642408370972,0.7686642408370972
961,1.0,0.014545369893312454,0.014545369893312454,1e-04,0.8199999928474426,0.7617611885070801,0.7617611885070801
962,0.9900000095367432,0.026851043105125427,0.026851043105125427,1e-04,0.8199999928474426,0.754161536693573,0.754161536693573
963,1.0,0.011544517241418362,0.011544517241418362,1e-04,0.8399999737739563,0.7476111054420471,0.7476111054420471
964,0.9800000190734863,0.035758957266807556,0.035758957266807556,1e-04,0.8399999737739563,0.7407089471817017,0.7407089471817017
965,0.9900000095367432,0.03205719590187073,0.03205719590187073,1e-04,0.8600000143051147,0.7361732721328735,0.7361732721328735
966,0.9900000095367432,0.02315933257341385,0.02315933257341385,1e-04,0.8600000143051147,0.7348800897598267,0.7348800897598267
