epoch,accuracy,categorical_crossentropy,loss,lr,val_accuracy,val_categorical_crossentropy,val_loss
0,0.5199999809265137,0.6924346685409546,0.6924346685409546,0.001,0.6399999856948853,0.6271255016326904,0.6271255016326904
1,0.6899999976158142,0.5849860906600952,0.5849860906600952,0.001,0.6399999856948853,0.5802139639854431,0.5802139639854431
2,0.6899999976158142,0.5544484853744507,0.5544484853744507,0.001,0.7099999785423279,0.5304580330848694,0.5304580330848694
3,0.7300000190734863,0.4954763352870941,0.4954763352870941,0.001,0.7900000214576721,0.4956812560558319,0.4956812560558319
4,0.800000011920929,0.45290085673332214,0.45290085673332214,0.001,0.7699999809265137,0.46048346161842346,0.46048346161842346
5,0.800000011920929,0.40626809000968933,0.40626809000968933,0.001,0.7400000095367432,0.439062237739563,0.439062237739563
6,0.7799999713897705,0.3772830069065094,0.3772830069065094,0.001,0.7400000095367432,0.4458446502685547,0.4458446502685547
7,0.7900000214576721,0.3804786801338196,0.3804786801338196,0.001,0.7400000095367432,0.46402862668037415,0.46402862668037415
8,0.8299999833106995,0.3625846803188324,0.3625846803188324,0.001,0.7400000095367432,0.4733176529407501,0.4733176529407501
9,0.8199999928474426,0.34326645731925964,0.34326645731925964,0.001,0.75,0.4698868691921234,0.4698868691921234
10,0.8399999737739563,0.33796176314353943,0.33796176314353943,0.001,0.7699999809265137,0.4566727578639984,0.4566727578639984
11,0.8399999737739563,0.3245755434036255,0.3245755434036255,0.001,0.7799999713897705,0.4389030933380127,0.4389030933380127
12,0.8299999833106995,0.3189053237438202,0.3189053237438202,0.001,0.7900000214576721,0.41972169280052185,0.41972169280052185
13,0.8500000238418579,0.3138752579689026,0.3138752579689026,0.001,0.800000011920929,0.40214207768440247,0.40214207768440247
14,0.8600000143051147,0.2715293765068054,0.2715293765068054,0.001,0.8199999928474426,0.3896345794200897,0.3896345794200897
15,0.8700000047683716,0.286126047372818,0.286126047372818,0.001,0.8199999928474426,0.38167786598205566,0.38167786598205566
16,0.8799999952316284,0.26846396923065186,0.26846396923065186,0.001,0.8600000143051147,0.3803709149360657,0.3803709149360657
17,0.8899999856948853,0.2460717409849167,0.2460717409849167,0.001,0.8500000238418579,0.3861049711704254,0.3861049711704254
18,0.8799999952316284,0.2390809804201126,0.2390809804201126,0.001,0.8500000238418579,0.3941153585910797,0.3941153585910797
19,0.8899999856948853,0.23831869661808014,0.23831869661808014,0.001,0.8600000143051147,0.4015101492404938,0.4015101492404938
20,0.9100000262260437,0.19276979565620422,0.19276979565620422,0.001,0.8600000143051147,0.41090136766433716,0.41090136766433716
21,0.9100000262260437,0.20851750671863556,0.20851750671863556,0.001,0.8199999928474426,0.43425291776657104,0.43425291776657104
22,0.8999999761581421,0.2263544201850891,0.2263544201850891,0.001,0.8299999833106995,0.4410543739795685,0.4410543739795685
23,0.8999999761581421,0.17777438461780548,0.17777438461780548,0.001,0.8299999833106995,0.43628525733947754,0.43628525733947754
24,0.9100000262260437,0.20817001163959503,0.20817001163959503,0.001,0.8299999833106995,0.4301225244998932,0.4301225244998932
25,0.9300000071525574,0.14918552339076996,0.14918552339076996,0.001,0.8299999833106995,0.43093058466911316,0.43093058466911316
26,0.949999988079071,0.1311587393283844,0.1311587393283844,0.001,0.8399999737739563,0.4403398931026459,0.4403398931026459
27,0.9100000262260437,0.2123846411705017,0.2123846411705017,0.001,0.8399999737739563,0.4476368725299835,0.4476368725299835
28,0.9200000166893005,0.17416876554489136,0.17416876554489136,0.001,0.8500000238418579,0.44753846526145935,0.44753846526145935
29,0.9100000262260437,0.17209237813949585,0.17209237813949585,0.001,0.8600000143051147,0.4560976028442383,0.4560976028442383
30,0.9100000262260437,0.1892155408859253,0.1892155408859253,0.001,0.8199999928474426,0.46585047245025635,0.46585047245025635
31,0.9100000262260437,0.1886269897222519,0.1886269897222519,0.001,0.8299999833106995,0.46331673860549927,0.46331673860549927
32,0.9300000071525574,0.19247257709503174,0.19247257709503174,0.001,0.8600000143051147,0.425253301858902,0.425253301858902
33,0.9200000166893005,0.20118065178394318,0.20118065178394318,0.001,0.8600000143051147,0.4108709394931793,0.4108709394931793
34,0.9100000262260437,0.17838799953460693,0.17838799953460693,0.001,0.8500000238418579,0.40175092220306396,0.40175092220306396
35,0.949999988079071,0.10656166076660156,0.10656166076660156,0.001,0.8799999952316284,0.4032045602798462,0.4032045602798462
36,0.9200000166893005,0.1488139033317566,0.1488139033317566,0.001,0.8600000143051147,0.38720157742500305,0.38720157742500305
37,0.9800000190734863,0.10120155662298203,0.10120155662298203,0.001,0.8799999952316284,0.3811788558959961,0.3811788558959961
38,0.9300000071525574,0.16950653493404388,0.16950653493404388,0.001,0.8799999952316284,0.3849256634712219,0.3849256634712219
39,0.9399999976158142,0.12278648465871811,0.12278648465871811,0.001,0.8799999952316284,0.3850032091140747,0.3850032091140747
40,0.949999988079071,0.11873714625835419,0.11873714625835419,0.001,0.8500000238418579,0.4101784825325012,0.4101784825325012
41,0.9399999976158142,0.1403876543045044,0.1403876543045044,0.001,0.8799999952316284,0.3955860435962677,0.3955860435962677
42,0.9800000190734863,0.11745688319206238,0.11745688319206238,0.001,0.8700000047683716,0.42025530338287354,0.42025530338287354
43,0.9300000071525574,0.15703816711902618,0.15703816711902618,0.001,0.8600000143051147,0.42518380284309387,0.42518380284309387
44,0.9700000286102295,0.08488579839468002,0.08488579839468002,0.001,0.8700000047683716,0.41702279448509216,0.41702279448509216
45,0.9599999785423279,0.11757444590330124,0.11757444590330124,0.001,0.8700000047683716,0.4112219214439392,0.4112219214439392
46,0.9599999785423279,0.10704516619443893,0.10704516619443893,0.001,0.8600000143051147,0.41153180599212646,0.41153180599212646
47,0.9599999785423279,0.10955360531806946,0.10955360531806946,0.001,0.8700000047683716,0.3976041376590729,0.3976041376590729
48,0.9399999976158142,0.10030858963727951,0.10030858963727951,0.001,0.8700000047683716,0.3941217064857483,0.3941217064857483
49,0.9800000190734863,0.0831456109881401,0.0831456109881401,0.001,0.8999999761581421,0.399876207113266,0.399876207113266
50,0.9599999785423279,0.0938449501991272,0.0938449501991272,0.001,0.8999999761581421,0.40936389565467834,0.40936389565467834
51,0.949999988079071,0.09419593214988708,0.09419593214988708,0.001,0.8700000047683716,0.39180466532707214,0.39180466532707214
52,0.949999988079071,0.09907551109790802,0.09907551109790802,0.001,0.8799999952316284,0.3924233913421631,0.3924233913421631
53,0.9599999785423279,0.10426808148622513,0.10426808148622513,0.001,0.8799999952316284,0.37006160616874695,0.37006160616874695
54,0.9599999785423279,0.13064375519752502,0.13064375519752502,0.001,0.8799999952316284,0.38227012753486633,0.38227012753486633
55,0.9399999976158142,0.1105639860033989,0.1105639860033989,0.001,0.8799999952316284,0.3840407133102417,0.3840407133102417
56,0.9800000190734863,0.08443336188793182,0.08443336188793182,0.001,0.8500000238418579,0.40071144700050354,0.40071144700050354
57,0.9800000190734863,0.07261818647384644,0.07261818647384644,0.001,0.8500000238418579,0.4311472773551941,0.4311472773551941
58,0.949999988079071,0.1408970057964325,0.1408970057964325,0.001,0.8500000238418579,0.4314633905887604,0.4314633905887604
59,0.949999988079071,0.11374568939208984,0.11374568939208984,0.001,0.8700000047683716,0.4837271571159363,0.4837271571159363
60,0.9100000262260437,0.17489594221115112,0.17489594221115112,0.001,0.8799999952316284,0.46639978885650635,0.46639978885650635
61,0.9800000190734863,0.05091162770986557,0.05091162770986557,0.001,0.8199999928474426,0.5653954744338989,0.5653954744338989
62,0.9200000166893005,0.18310512602329254,0.18310512602329254,0.001,0.8500000238418579,0.49560612440109253,0.49560612440109253
63,0.9700000286102295,0.07972057163715363,0.07972057163715363,0.001,0.8399999737739563,0.47312167286872864,0.47312167286872864
64,0.9599999785423279,0.12387453019618988,0.12387453019618988,0.001,0.8600000143051147,0.580883800983429,0.580883800983429
65,0.9399999976158142,0.12383675575256348,0.12383675575256348,0.001,0.8399999737739563,0.5320466160774231,0.5320466160774231
66,0.9599999785423279,0.1135566458106041,0.1135566458106041,0.001,0.8299999833106995,0.4750252068042755,0.4750252068042755
67,0.9399999976158142,0.10775382071733475,0.10775382071733475,0.001,0.8100000023841858,0.49736741185188293,0.49736741185188293
68,0.9399999976158142,0.09368736296892166,0.09368736296892166,0.001,0.8299999833106995,0.4845360815525055,0.4845360815525055
69,0.9700000286102295,0.0664861872792244,0.0664861872792244,0.001,0.8399999737739563,0.49441567063331604,0.49441567063331604
70,0.9800000190734863,0.0726454108953476,0.0726454108953476,0.001,0.8399999737739563,0.5130442976951599,0.5130442976951599
71,0.9599999785423279,0.06822340935468674,0.06822340935468674,0.001,0.8500000238418579,0.5231756567955017,0.5231756567955017
72,1.0,0.01983662322163582,0.01983662322163582,0.001,0.8600000143051147,0.5535476207733154,0.5535476207733154
73,0.9599999785423279,0.07183602452278137,0.07183602452278137,0.001,0.8600000143051147,0.5537676811218262,0.5537676811218262
74,0.9599999785423279,0.07747816294431686,0.07747816294431686,0.001,0.8500000238418579,0.5349878668785095,0.5349878668785095
75,0.9900000095367432,0.058423593640327454,0.058423593640327454,0.001,0.8600000143051147,0.5394882559776306,0.5394882559776306
76,0.9800000190734863,0.04852624982595444,0.04852624982595444,0.001,0.8700000047683716,0.5235126614570618,0.5235126614570618
77,0.9800000190734863,0.07164882123470306,0.07164882123470306,0.001,0.8399999737739563,0.5200700163841248,0.5200700163841248
78,0.9800000190734863,0.08352680504322052,0.08352680504322052,0.001,0.8399999737739563,0.536177396774292,0.536177396774292
79,0.9800000190734863,0.05115191638469696,0.05115191638469696,0.001,0.8399999737739563,0.5243427753448486,0.5243427753448486
80,0.9599999785423279,0.1147516742348671,0.1147516742348671,0.001,0.8600000143051147,0.5120213031768799,0.5120213031768799
81,0.9700000286102295,0.14392301440238953,0.14392301440238953,0.001,0.8700000047683716,0.5242995619773865,0.5242995619773865
82,0.9599999785423279,0.083191879093647,0.083191879093647,0.001,0.8700000047683716,0.5254409909248352,0.5254409909248352
83,0.9399999976158142,0.11866851150989532,0.11866851150989532,0.001,0.8500000238418579,0.538867712020874,0.538867712020874
84,0.9800000190734863,0.05515965446829796,0.05515965446829796,0.001,0.8299999833106995,0.5742833018302917,0.5742833018302917
85,0.9399999976158142,0.13267606496810913,0.13267606496810913,0.001,0.8600000143051147,0.529996395111084,0.529996395111084
86,0.9800000190734863,0.05991167947649956,0.05991167947649956,0.001,0.8700000047683716,0.5602972507476807,0.5602972507476807
87,0.9300000071525574,0.13627319037914276,0.13627319037914276,0.001,0.8700000047683716,0.5542363524436951,0.5542363524436951
88,0.9599999785423279,0.09702149033546448,0.09702149033546448,0.001,0.8500000238418579,0.5646680593490601,0.5646680593490601
89,0.949999988079071,0.08339714258909225,0.08339714258909225,0.001,0.8399999737739563,0.6006156206130981,0.6006156206130981
90,0.9599999785423279,0.0782175287604332,0.0782175287604332,0.001,0.8500000238418579,0.6208001971244812,0.6208001971244812
91,0.9700000286102295,0.10342801362276077,0.10342801362276077,0.001,0.8500000238418579,0.5728373527526855,0.5728373527526855
92,0.9800000190734863,0.04696314409375191,0.04696314409375191,0.001,0.8299999833106995,0.5448809266090393,0.5448809266090393
93,0.9700000286102295,0.06914857029914856,0.06914857029914856,0.001,0.8399999737739563,0.5598612427711487,0.5598612427711487
94,0.9599999785423279,0.08637554198503494,0.08637554198503494,0.001,0.8399999737739563,0.5737990140914917,0.5737990140914917
95,0.9599999785423279,0.1359177827835083,0.1359177827835083,0.001,0.8500000238418579,0.5122767090797424,0.5122767090797424
96,0.9800000190734863,0.06618017703294754,0.06618017703294754,0.001,0.8600000143051147,0.5152618288993835,0.5152618288993835
97,0.9599999785423279,0.08399158716201782,0.08399158716201782,0.001,0.8500000238418579,0.5243056416511536,0.5243056416511536
98,0.949999988079071,0.11020009219646454,0.11020009219646454,0.001,0.8600000143051147,0.4864429831504822,0.4864429831504822
99,0.9800000190734863,0.06204729154706001,0.06204729154706001,0.001,0.8600000143051147,0.48397427797317505,0.48397427797317505
100,0.9300000071525574,0.11512048542499542,0.11512048542499542,0.001,0.8700000047683716,0.48818325996398926,0.48818325996398926
101,0.9700000286102295,0.08725299686193466,0.08725299686193466,0.001,0.8600000143051147,0.48554664850234985,0.48554664850234985
102,0.9900000095367432,0.04261649772524834,0.04261649772524834,0.001,0.8399999737739563,0.5038895606994629,0.5038895606994629
103,0.9900000095367432,0.0373954214155674,0.0373954214155674,0.001,0.8399999737739563,0.5491698980331421,0.5491698980331421
104,0.9900000095367432,0.050397083163261414,0.050397083163261414,0.0005,0.8500000238418579,0.5616025924682617,0.5616025924682617
105,0.9800000190734863,0.0512385219335556,0.0512385219335556,0.0005,0.8399999737739563,0.5439184904098511,0.5439184904098511
106,0.9900000095367432,0.03541012108325958,0.03541012108325958,0.0005,0.8399999737739563,0.525766134262085,0.525766134262085
107,0.9700000286102295,0.05805773660540581,0.05805773660540581,0.0005,0.8700000047683716,0.5185512900352478,0.5185512900352478
108,1.0,0.03656897693872452,0.03656897693872452,0.0005,0.8700000047683716,0.5296995639801025,0.5296995639801025
109,0.9700000286102295,0.0728759914636612,0.0728759914636612,0.0005,0.8700000047683716,0.5388257503509521,0.5388257503509521
110,0.9800000190734863,0.074577197432518,0.074577197432518,0.0005,0.8700000047683716,0.5470252633094788,0.5470252633094788
111,0.9900000095367432,0.03830632567405701,0.03830632567405701,0.0005,0.8299999833106995,0.5604516863822937,0.5604516863822937
112,0.9900000095367432,0.026067471131682396,0.026067471131682396,0.0005,0.8299999833106995,0.5758043527603149,0.5758043527603149
113,0.9900000095367432,0.04594956710934639,0.04594956710934639,0.0005,0.8399999737739563,0.5862200856208801,0.5862200856208801
114,0.9900000095367432,0.030679529532790184,0.030679529532790184,0.0005,0.8399999737739563,0.591261088848114,0.591261088848114
115,0.9800000190734863,0.0522606261074543,0.0522606261074543,0.0005,0.8399999737739563,0.5949056148529053,0.5949056148529053
116,0.9599999785423279,0.08458726108074188,0.08458726108074188,0.0005,0.8500000238418579,0.5871716737747192,0.5871716737747192
117,0.9700000286102295,0.06448747962713242,0.06448747962713242,0.0005,0.8500000238418579,0.5912124514579773,0.5912124514579773
118,0.9900000095367432,0.0250399187207222,0.0250399187207222,0.0005,0.8600000143051147,0.5969823598861694,0.5969823598861694
119,0.9900000095367432,0.04064788296818733,0.04064788296818733,0.0005,0.8500000238418579,0.6041790246963501,0.6041790246963501
120,0.9900000095367432,0.04560014232993126,0.04560014232993126,0.0005,0.8500000238418579,0.6113390922546387,0.6113390922546387
121,1.0,0.02184222638607025,0.02184222638607025,0.0005,0.8399999737739563,0.6242688298225403,0.6242688298225403
122,0.9900000095367432,0.02627565898001194,0.02627565898001194,0.0005,0.8399999737739563,0.6409184336662292,0.6409184336662292
123,1.0,0.01558375358581543,0.01558375358581543,0.0005,0.8299999833106995,0.6608701348304749,0.6608701348304749
124,0.9800000190734863,0.05637277662754059,0.05637277662754059,0.0005,0.8299999833106995,0.6600300073623657,0.6600300073623657
125,0.9900000095367432,0.03114091418683529,0.03114091418683529,0.0005,0.8399999737739563,0.6541917324066162,0.6541917324066162
126,0.9700000286102295,0.07340259850025177,0.07340259850025177,0.0005,0.8500000238418579,0.6461743712425232,0.6461743712425232
127,0.9900000095367432,0.041572846472263336,0.041572846472263336,0.0005,0.8700000047683716,0.6483181118965149,0.6483181118965149
128,0.9900000095367432,0.07494883984327316,0.07494883984327316,0.0005,0.8700000047683716,0.6501737833023071,0.6501737833023071
129,0.9900000095367432,0.037287842482328415,0.037287842482328415,0.0005,0.8700000047683716,0.653766930103302,0.653766930103302
130,0.9700000286102295,0.06429851800203323,0.06429851800203323,0.0005,0.8700000047683716,0.6558499932289124,0.6558499932289124
131,1.0,0.027517395094037056,0.027517395094037056,0.0005,0.8399999737739563,0.6657180190086365,0.6657180190086365
132,0.9700000286102295,0.10264624655246735,0.10264624655246735,0.0005,0.8399999737739563,0.6790964603424072,0.6790964603424072
133,0.9700000286102295,0.07878431677818298,0.07878431677818298,0.0005,0.8399999737739563,0.6762306094169617,0.6762306094169617
134,0.9599999785423279,0.06911889463663101,0.06911889463663101,0.0005,0.8399999737739563,0.6744964718818665,0.6744964718818665
135,1.0,0.017046503722667694,0.017046503722667694,0.0005,0.8399999737739563,0.6744194030761719,0.6744194030761719
136,0.9800000190734863,0.06365429610013962,0.06365429610013962,0.0005,0.8600000143051147,0.6716110706329346,0.6716110706329346
137,0.9700000286102295,0.10383271425962448,0.10383271425962448,0.0005,0.8700000047683716,0.6652218103408813,0.6652218103408813
138,0.9700000286102295,0.06997184455394745,0.06997184455394745,0.0005,0.8700000047683716,0.6607237458229065,0.6607237458229065
139,0.9800000190734863,0.04427385702729225,0.04427385702729225,0.0005,0.8500000238418579,0.6592325568199158,0.6592325568199158
140,0.9700000286102295,0.07273078709840775,0.07273078709840775,0.0005,0.8399999737739563,0.6686654090881348,0.6686654090881348
141,0.9900000095367432,0.039202917367219925,0.039202917367219925,0.0005,0.8299999833106995,0.687775731086731,0.687775731086731
142,1.0,0.018951276317238808,0.018951276317238808,0.0005,0.8299999833106995,0.7037243843078613,0.7037243843078613
143,0.9599999785423279,0.0868038758635521,0.0868038758635521,0.0005,0.8299999833106995,0.6776033043861389,0.6776033043861389
144,1.0,0.020392809063196182,0.020392809063196182,0.0005,0.8399999737739563,0.6611281037330627,0.6611281037330627
145,0.949999988079071,0.060015223920345306,0.060015223920345306,0.0005,0.8500000238418579,0.6514056324958801,0.6514056324958801
146,0.9700000286102295,0.039861902594566345,0.039861902594566345,0.0005,0.8600000143051147,0.6478880047798157,0.6478880047798157
147,0.9800000190734863,0.06523773819208145,0.06523773819208145,0.0005,0.8500000238418579,0.6454377770423889,0.6454377770423889
148,0.949999988079071,0.11777043342590332,0.11777043342590332,0.0005,0.8600000143051147,0.6374399065971375,0.6374399065971375
149,0.9700000286102295,0.07064402848482132,0.07064402848482132,0.0005,0.8600000143051147,0.6368288397789001,0.6368288397789001
150,0.9700000286102295,0.07910896837711334,0.07910896837711334,0.0005,0.8600000143051147,0.6354565620422363,0.6354565620422363
151,0.9900000095367432,0.04696059226989746,0.04696059226989746,0.0005,0.8600000143051147,0.6366360187530518,0.6366360187530518
152,1.0,0.013397646136581898,0.013397646136581898,0.0005,0.8600000143051147,0.6396813988685608,0.6396813988685608
153,0.9900000095367432,0.021422315388917923,0.021422315388917923,0.0005,0.8600000143051147,0.6447256207466125,0.6447256207466125
154,0.9900000095367432,0.06738434731960297,0.06738434731960297,0.00025,0.8500000238418579,0.6486385464668274,0.6486385464668274
155,0.9700000286102295,0.09510201215744019,0.09510201215744019,0.00025,0.8500000238418579,0.6553711891174316,0.6553711891174316
156,0.9700000286102295,0.03643082454800606,0.03643082454800606,0.00025,0.8500000238418579,0.6567404270172119,0.6567404270172119
157,1.0,0.008812769316136837,0.008812769316136837,0.00025,0.8399999737739563,0.6592417359352112,0.6592417359352112
158,0.9900000095367432,0.017560474574565887,0.017560474574565887,0.00025,0.8399999737739563,0.6640011668205261,0.6640011668205261
159,0.9700000286102295,0.06963067501783371,0.06963067501783371,0.00025,0.8399999737739563,0.6611552238464355,0.6611552238464355
160,0.9900000095367432,0.038750823587179184,0.038750823587179184,0.00025,0.8500000238418579,0.6558570861816406,0.6558570861816406
161,0.9900000095367432,0.030749408528208733,0.030749408528208733,0.00025,0.8500000238418579,0.6488713026046753,0.6488713026046753
162,0.9900000095367432,0.03756237030029297,0.03756237030029297,0.00025,0.8500000238418579,0.6426582336425781,0.6426582336425781
163,0.9800000190734863,0.03928908333182335,0.03928908333182335,0.00025,0.8600000143051147,0.6409664154052734,0.6409664154052734
164,0.9900000095367432,0.08358410745859146,0.08358410745859146,0.00025,0.8500000238418579,0.6428883075714111,0.6428883075714111
165,0.9700000286102295,0.08089487254619598,0.08089487254619598,0.00025,0.8500000238418579,0.6466123461723328,0.6466123461723328
166,0.9800000190734863,0.031389884650707245,0.031389884650707245,0.00025,0.8500000238418579,0.651735246181488,0.651735246181488
167,0.9800000190734863,0.05463479086756706,0.05463479086756706,0.00025,0.8500000238418579,0.648471474647522,0.648471474647522
168,0.9800000190734863,0.04758384823799133,0.04758384823799133,0.00025,0.8500000238418579,0.6476962566375732,0.6476962566375732
169,0.9900000095367432,0.032039955258369446,0.032039955258369446,0.00025,0.8399999737739563,0.6486749053001404,0.6486749053001404
170,1.0,0.026119979098439217,0.026119979098439217,0.00025,0.8399999737739563,0.6512765288352966,0.6512765288352966
171,0.949999988079071,0.07534530013799667,0.07534530013799667,0.00025,0.8600000143051147,0.6463244557380676,0.6463244557380676
172,0.9900000095367432,0.04887252673506737,0.04887252673506737,0.00025,0.8500000238418579,0.6433544158935547,0.6433544158935547
173,0.9599999785423279,0.07668164372444153,0.07668164372444153,0.00025,0.8500000238418579,0.643258273601532,0.643258273601532
174,1.0,0.01927047036588192,0.01927047036588192,0.00025,0.8500000238418579,0.643625020980835,0.643625020980835
175,0.9800000190734863,0.043029166758060455,0.043029166758060455,0.00025,0.8500000238418579,0.6431734561920166,0.6431734561920166
176,1.0,0.0158916674554348,0.0158916674554348,0.00025,0.8500000238418579,0.6435284614562988,0.6435284614562988
177,1.0,0.0247306227684021,0.0247306227684021,0.00025,0.8399999737739563,0.6450803875923157,0.6450803875923157
178,0.9900000095367432,0.02455049194395542,0.02455049194395542,0.00025,0.8399999737739563,0.6481358408927917,0.6481358408927917
179,1.0,0.02831856906414032,0.02831856906414032,0.00025,0.8399999737739563,0.6524888873100281,0.6524888873100281
180,1.0,0.009775558486580849,0.009775558486580849,0.00025,0.8299999833106995,0.6563453078269958,0.6563453078269958
181,0.9599999785423279,0.08389531075954437,0.08389531075954437,0.00025,0.8399999737739563,0.6487234234809875,0.6487234234809875
182,1.0,0.02107277326285839,0.02107277326285839,0.00025,0.8399999737739563,0.6442520618438721,0.6442520618438721
183,0.9900000095367432,0.01817304641008377,0.01817304641008377,0.00025,0.8600000143051147,0.645477294921875,0.645477294921875
184,0.9700000286102295,0.07687131315469742,0.07687131315469742,0.00025,0.8399999737739563,0.6462715268135071,0.6462715268135071
185,0.9900000095367432,0.03431575000286102,0.03431575000286102,0.00025,0.8399999737739563,0.6470285058021545,0.6470285058021545
186,0.9800000190734863,0.0338849276304245,0.0338849276304245,0.00025,0.8399999737739563,0.6459401845932007,0.6459401845932007
187,0.9800000190734863,0.030685532838106155,0.030685532838106155,0.00025,0.8399999737739563,0.6469897627830505,0.6469897627830505
188,0.9900000095367432,0.03275669738650322,0.03275669738650322,0.00025,0.8299999833106995,0.6474218964576721,0.6474218964576721
189,0.949999988079071,0.0649312287569046,0.0649312287569046,0.00025,0.8299999833106995,0.6487180590629578,0.6487180590629578
190,0.9800000190734863,0.08813602477312088,0.08813602477312088,0.00025,0.8299999833106995,0.6485307812690735,0.6485307812690735
191,0.9700000286102295,0.10029826313257217,0.10029826313257217,0.00025,0.8299999833106995,0.6538571715354919,0.6538571715354919
192,0.9800000190734863,0.0675581619143486,0.0675581619143486,0.00025,0.8299999833106995,0.6503015756607056,0.6503015756607056
193,0.9599999785423279,0.07153607159852982,0.07153607159852982,0.00025,0.8299999833106995,0.6429994702339172,0.6429994702339172
194,1.0,0.01550623681396246,0.01550623681396246,0.00025,0.8399999737739563,0.6378362774848938,0.6378362774848938
195,0.9700000286102295,0.05585026741027832,0.05585026741027832,0.00025,0.8500000238418579,0.6349192261695862,0.6349192261695862
196,0.9599999785423279,0.08813461661338806,0.08813461661338806,0.00025,0.8500000238418579,0.6349388957023621,0.6349388957023621
197,1.0,0.02224091812968254,0.02224091812968254,0.00025,0.8500000238418579,0.6358681321144104,0.6358681321144104
198,0.9599999785423279,0.07306254655122757,0.07306254655122757,0.00025,0.8600000143051147,0.6338177919387817,0.6338177919387817
199,0.9800000190734863,0.054299093782901764,0.054299093782901764,0.00025,0.8500000238418579,0.6296305060386658,0.6296305060386658
200,0.9800000190734863,0.05296744406223297,0.05296744406223297,0.00025,0.8500000238418579,0.6301807165145874,0.6301807165145874
201,1.0,0.018083076924085617,0.018083076924085617,0.00025,0.8299999833106995,0.6332544684410095,0.6332544684410095
202,0.9900000095367432,0.02636805735528469,0.02636805735528469,0.00025,0.8399999737739563,0.6376478672027588,0.6376478672027588
203,0.9900000095367432,0.05234454944729805,0.05234454944729805,0.00025,0.8399999737739563,0.638637900352478,0.638637900352478
204,0.9800000190734863,0.09979980438947678,0.09979980438947678,0.000125,0.8399999737739563,0.6413867473602295,0.6413867473602295
205,0.9900000095367432,0.034811995923519135,0.034811995923519135,0.000125,0.8399999737739563,0.641949474811554,0.641949474811554
206,0.9900000095367432,0.04324926808476448,0.04324926808476448,0.000125,0.8399999737739563,0.6435163617134094,0.6435163617134094
207,0.9800000190734863,0.031112533062696457,0.031112533062696457,0.000125,0.8299999833106995,0.6418377757072449,0.6418377757072449
208,0.9800000190734863,0.031859852373600006,0.031859852373600006,0.000125,0.8299999833106995,0.6426711082458496,0.6426711082458496
209,0.9800000190734863,0.042549487203359604,0.042549487203359604,0.000125,0.8299999833106995,0.6437329053878784,0.6437329053878784
210,1.0,0.019387098029255867,0.019387098029255867,0.000125,0.8299999833106995,0.6452009677886963,0.6452009677886963
211,1.0,0.015439117327332497,0.015439117327332497,0.000125,0.8299999833106995,0.6467692852020264,0.6467692852020264
212,0.9900000095367432,0.035679206252098083,0.035679206252098083,0.000125,0.8299999833106995,0.6509153246879578,0.6509153246879578
213,0.9700000286102295,0.07531695067882538,0.07531695067882538,0.000125,0.8399999737739563,0.6518778204917908,0.6518778204917908
214,0.9900000095367432,0.02511504851281643,0.02511504851281643,0.000125,0.8399999737739563,0.6530236005783081,0.6530236005783081
215,1.0,0.017393698915839195,0.017393698915839195,0.000125,0.8399999737739563,0.6547636389732361,0.6547636389732361
216,0.9900000095367432,0.029818255454301834,0.029818255454301834,0.000125,0.8399999737739563,0.6572399735450745,0.6572399735450745
217,1.0,0.01565125398337841,0.01565125398337841,0.000125,0.8500000238418579,0.659577488899231,0.659577488899231
218,0.9700000286102295,0.07629844546318054,0.07629844546318054,0.000125,0.8500000238418579,0.6612446308135986,0.6612446308135986
219,0.9800000190734863,0.04530069977045059,0.04530069977045059,0.000125,0.8500000238418579,0.6641532778739929,0.6641532778739929
220,0.9700000286102295,0.03699149936437607,0.03699149936437607,0.000125,0.8500000238418579,0.6681867837905884,0.6681867837905884
221,1.0,0.018383989110589027,0.018383989110589027,0.000125,0.8399999737739563,0.6721708178520203,0.6721708178520203
222,0.9900000095367432,0.05297580361366272,0.05297580361366272,0.000125,0.8399999737739563,0.6782838702201843,0.6782838702201843
223,0.9900000095367432,0.025724027305841446,0.025724027305841446,0.000125,0.8299999833106995,0.6876163482666016,0.6876163482666016
224,0.9900000095367432,0.040955185890197754,0.040955185890197754,0.000125,0.8299999833106995,0.6990174651145935,0.6990174651145935
225,0.9900000095367432,0.019381772726774216,0.019381772726774216,0.000125,0.8299999833106995,0.7082417011260986,0.7082417011260986
226,1.0,0.020262913778424263,0.020262913778424263,0.000125,0.8299999833106995,0.7155680656433105,0.7155680656433105
227,0.9900000095367432,0.02466863952577114,0.02466863952577114,0.000125,0.8299999833106995,0.7178113460540771,0.7178113460540771
228,0.9900000095367432,0.027703750878572464,0.027703750878572464,0.000125,0.8399999737739563,0.7175477743148804,0.7175477743148804
229,0.9900000095367432,0.028955215588212013,0.028955215588212013,0.000125,0.8399999737739563,0.7156080603599548,0.7156080603599548
230,0.9900000095367432,0.029823217540979385,0.029823217540979385,0.000125,0.8399999737739563,0.7118057012557983,0.7118057012557983
231,0.9900000095367432,0.013945061713457108,0.013945061713457108,0.000125,0.8399999737739563,0.7089139819145203,0.7089139819145203
232,0.9900000095367432,0.03185911476612091,0.03185911476612091,0.000125,0.8399999737739563,0.7085505723953247,0.7085505723953247
233,0.9800000190734863,0.055206216871738434,0.055206216871738434,0.000125,0.8399999737739563,0.7079787254333496,0.7079787254333496
234,0.9800000190734863,0.09118093550205231,0.09118093550205231,0.000125,0.8399999737739563,0.708479106426239,0.708479106426239
235,0.949999988079071,0.0686626136302948,0.0686626136302948,0.000125,0.8399999737739563,0.7088314890861511,0.7088314890861511
236,1.0,0.010041461326181889,0.010041461326181889,0.000125,0.8399999737739563,0.7095643877983093,0.7095643877983093
237,0.9900000095367432,0.020140130072832108,0.020140130072832108,0.000125,0.8399999737739563,0.7118418216705322,0.7118418216705322
238,0.9700000286102295,0.064177967607975,0.064177967607975,0.000125,0.8399999737739563,0.7140071988105774,0.7140071988105774
239,0.9800000190734863,0.02852005884051323,0.02852005884051323,0.000125,0.8399999737739563,0.7164024114608765,0.7164024114608765
240,0.9800000190734863,0.06011590361595154,0.06011590361595154,0.000125,0.8500000238418579,0.7189698815345764,0.7189698815345764
241,0.9800000190734863,0.0369587168097496,0.0369587168097496,0.000125,0.8500000238418579,0.7210846543312073,0.7210846543312073
242,0.9800000190734863,0.056617531925439835,0.056617531925439835,0.000125,0.8500000238418579,0.7196968197822571,0.7196968197822571
243,1.0,0.020645251497626305,0.020645251497626305,0.000125,0.8500000238418579,0.7169063687324524,0.7169063687324524
244,1.0,0.018610544502735138,0.018610544502735138,0.000125,0.8500000238418579,0.7138510346412659,0.7138510346412659
245,0.949999988079071,0.06400621682405472,0.06400621682405472,0.000125,0.8500000238418579,0.7087059617042542,0.7087059617042542
246,0.9900000095367432,0.028754837810993195,0.028754837810993195,0.000125,0.8399999737739563,0.7039126753807068,0.7039126753807068
247,0.9800000190734863,0.03990720212459564,0.03990720212459564,0.000125,0.8399999737739563,0.7026019096374512,0.7026019096374512
248,0.9700000286102295,0.05691179633140564,0.05691179633140564,0.000125,0.8399999737739563,0.700188398361206,0.700188398361206
249,0.9800000190734863,0.07617252320051193,0.07617252320051193,0.000125,0.8500000238418579,0.6994893550872803,0.6994893550872803
250,1.0,0.008570801466703415,0.008570801466703415,0.000125,0.8500000238418579,0.6988815069198608,0.6988815069198608
251,0.9700000286102295,0.08754409104585648,0.08754409104585648,0.000125,0.8399999737739563,0.7006242871284485,0.7006242871284485
252,0.9700000286102295,0.05321986973285675,0.05321986973285675,0.000125,0.8399999737739563,0.6984107494354248,0.6984107494354248
253,0.9800000190734863,0.03981587663292885,0.03981587663292885,0.000125,0.8399999737739563,0.6951934099197388,0.6951934099197388
254,1.0,0.02444145642220974,0.02444145642220974,1e-04,0.8399999737739563,0.6930990815162659,0.6930990815162659
255,0.9700000286102295,0.05490187555551529,0.05490187555551529,1e-04,0.8399999737739563,0.6916530132293701,0.6916530132293701
256,0.9800000190734863,0.0496521033346653,0.0496521033346653,1e-04,0.8399999737739563,0.6894267797470093,0.6894267797470093
257,0.9900000095367432,0.02246580272912979,0.02246580272912979,1e-04,0.8399999737739563,0.6876133680343628,0.6876133680343628
258,0.9900000095367432,0.024659326300024986,0.024659326300024986,1e-04,0.8500000238418579,0.6851090788841248,0.6851090788841248
259,0.9900000095367432,0.03964613005518913,0.03964613005518913,1e-04,0.8399999737739563,0.6810018420219421,0.6810018420219421
260,1.0,0.021493665874004364,0.021493665874004364,1e-04,0.8500000238418579,0.6783779263496399,0.6783779263496399
261,0.9900000095367432,0.03212907165288925,0.03212907165288925,1e-04,0.8500000238418579,0.6764940023422241,0.6764940023422241
262,0.9900000095367432,0.023911090567708015,0.023911090567708015,1e-04,0.8600000143051147,0.6755558848381042,0.6755558848381042
263,1.0,0.01867654174566269,0.01867654174566269,1e-04,0.8600000143051147,0.6740021705627441,0.6740021705627441
264,0.9900000095367432,0.03142143785953522,0.03142143785953522,1e-04,0.8600000143051147,0.6727539300918579,0.6727539300918579
265,0.9800000190734863,0.03503451496362686,0.03503451496362686,1e-04,0.8600000143051147,0.6729183197021484,0.6729183197021484
266,0.9700000286102295,0.07346101105213165,0.07346101105213165,1e-04,0.8600000143051147,0.6725554466247559,0.6725554466247559
267,0.9900000095367432,0.0668235570192337,0.0668235570192337,1e-04,0.8600000143051147,0.6710990071296692,0.6710990071296692
268,1.0,0.010464382357895374,0.010464382357895374,1e-04,0.8600000143051147,0.6699581146240234,0.6699581146240234
269,0.9900000095367432,0.042471908032894135,0.042471908032894135,1e-04,0.8600000143051147,0.6691957116127014,0.6691957116127014
270,1.0,0.0121307959780097,0.0121307959780097,1e-04,0.8600000143051147,0.6687518358230591,0.6687518358230591
271,1.0,0.010235783644020557,0.010235783644020557,1e-04,0.8600000143051147,0.6688529849052429,0.6688529849052429
272,0.9700000286102295,0.07812325656414032,0.07812325656414032,1e-04,0.8600000143051147,0.6693771481513977,0.6693771481513977
273,1.0,0.018512701615691185,0.018512701615691185,1e-04,0.8600000143051147,0.6701077222824097,0.6701077222824097
274,0.9700000286102295,0.046450477093458176,0.046450477093458176,1e-04,0.8299999833106995,0.6739547252655029,0.6739547252655029
275,1.0,0.008097314275801182,0.008097314275801182,1e-04,0.8399999737739563,0.677558958530426,0.677558958530426
276,0.9900000095367432,0.03230613097548485,0.03230613097548485,1e-04,0.8399999737739563,0.6802369952201843,0.6802369952201843
277,0.9800000190734863,0.06519874930381775,0.06519874930381775,1e-04,0.8399999737739563,0.6800177693367004,0.6800177693367004
278,0.9900000095367432,0.043962713330984116,0.043962713330984116,1e-04,0.8399999737739563,0.6789079308509827,0.6789079308509827
279,1.0,0.01168554276227951,0.01168554276227951,1e-04,0.8399999737739563,0.6781218647956848,0.6781218647956848
280,0.9900000095367432,0.0305870920419693,0.0305870920419693,1e-04,0.8399999737739563,0.6782499551773071,0.6782499551773071
281,0.9900000095367432,0.023654356598854065,0.023654356598854065,1e-04,0.8399999737739563,0.6773714423179626,0.6773714423179626
282,0.9900000095367432,0.024032164365053177,0.024032164365053177,1e-04,0.8399999737739563,0.6759836673736572,0.6759836673736572
283,0.9900000095367432,0.02633170410990715,0.02633170410990715,1e-04,0.8399999737739563,0.6751950979232788,0.6751950979232788
284,1.0,0.018829043954610825,0.018829043954610825,1e-04,0.8399999737739563,0.6753790974617004,0.6753790974617004
285,0.9900000095367432,0.046796396374702454,0.046796396374702454,1e-04,0.8399999737739563,0.6749690175056458,0.6749690175056458
286,0.9700000286102295,0.06857749819755554,0.06857749819755554,1e-04,0.8399999737739563,0.6753897666931152,0.6753897666931152
287,0.9900000095367432,0.022044086828827858,0.022044086828827858,1e-04,0.8399999737739563,0.6740980744361877,0.6740980744361877
288,1.0,0.012462540529668331,0.012462540529668331,1e-04,0.8399999737739563,0.6729992032051086,0.6729992032051086
289,1.0,0.017370503395795822,0.017370503395795822,1e-04,0.8399999737739563,0.6735082864761353,0.6735082864761353
290,0.9900000095367432,0.034298282116651535,0.034298282116651535,1e-04,0.8399999737739563,0.6732946038246155,0.6732946038246155
291,0.949999988079071,0.07439753413200378,0.07439753413200378,1e-04,0.8500000238418579,0.6742573380470276,0.6742573380470276
292,1.0,0.020142080262303352,0.020142080262303352,1e-04,0.8399999737739563,0.6755544543266296,0.6755544543266296
293,0.9800000190734863,0.04097473993897438,0.04097473993897438,1e-04,0.8399999737739563,0.6802935600280762,0.6802935600280762
294,1.0,0.019735151901841164,0.019735151901841164,1e-04,0.8399999737739563,0.6859281659126282,0.6859281659126282
295,0.9900000095367432,0.025924844667315483,0.025924844667315483,1e-04,0.8399999737739563,0.6930674910545349,0.6930674910545349
296,0.9900000095367432,0.040684159845113754,0.040684159845113754,1e-04,0.8399999737739563,0.7013236284255981,0.7013236284255981
297,1.0,0.02246895805001259,0.02246895805001259,1e-04,0.8399999737739563,0.7087483406066895,0.7087483406066895
298,1.0,0.0139344222843647,0.0139344222843647,1e-04,0.8399999737739563,0.7159727215766907,0.7159727215766907
299,0.9900000095367432,0.04145127907395363,0.04145127907395363,1e-04,0.8299999833106995,0.7245023250579834,0.7245023250579834
300,0.9800000190734863,0.035534173250198364,0.035534173250198364,1e-04,0.8399999737739563,0.7261881828308105,0.7261881828308105
301,0.9700000286102295,0.062362466007471085,0.062362466007471085,1e-04,0.8399999737739563,0.723270058631897,0.723270058631897
302,0.9900000095367432,0.027934126555919647,0.027934126555919647,1e-04,0.8399999737739563,0.7171914577484131,0.7171914577484131
303,0.9800000190734863,0.057378463447093964,0.057378463447093964,1e-04,0.8399999737739563,0.7067471146583557,0.7067471146583557
304,0.9800000190734863,0.03472752869129181,0.03472752869129181,1e-04,0.8399999737739563,0.6962676048278809,0.6962676048278809
305,0.9900000095367432,0.03971622884273529,0.03971622884273529,1e-04,0.8399999737739563,0.688671886920929,0.688671886920929
306,0.9900000095367432,0.028613582253456116,0.028613582253456116,1e-04,0.8600000143051147,0.6848136186599731,0.6848136186599731
307,0.9900000095367432,0.04674157500267029,0.04674157500267029,1e-04,0.8700000047683716,0.683275580406189,0.683275580406189
308,1.0,0.011261409148573875,0.011261409148573875,1e-04,0.8700000047683716,0.6843466758728027,0.6843466758728027
309,0.9900000095367432,0.03498563915491104,0.03498563915491104,1e-04,0.8700000047683716,0.6858179569244385,0.6858179569244385
310,0.9900000095367432,0.03586060181260109,0.03586060181260109,1e-04,0.8700000047683716,0.6878355145454407,0.6878355145454407
311,0.9900000095367432,0.025601856410503387,0.025601856410503387,1e-04,0.8700000047683716,0.6892474293708801,0.6892474293708801
312,0.9900000095367432,0.053128525614738464,0.053128525614738464,1e-04,0.8700000047683716,0.6890261769294739,0.6890261769294739
313,0.9900000095367432,0.036193687468767166,0.036193687468767166,1e-04,0.8700000047683716,0.6870841383934021,0.6870841383934021
314,0.9700000286102295,0.06836597621440887,0.06836597621440887,1e-04,0.8700000047683716,0.6842101216316223,0.6842101216316223
315,0.9900000095367432,0.05747383460402489,0.05747383460402489,1e-04,0.8600000143051147,0.6833940148353577,0.6833940148353577
316,0.9900000095367432,0.03217732533812523,0.03217732533812523,1e-04,0.8600000143051147,0.683655321598053,0.683655321598053
317,0.9800000190734863,0.03860511630773544,0.03860511630773544,1e-04,0.8500000238418579,0.6875734925270081,0.6875734925270081
318,0.9900000095367432,0.02447078749537468,0.02447078749537468,1e-04,0.8399999737739563,0.6963828206062317,0.6963828206062317
319,1.0,0.007477474398910999,0.007477474398910999,1e-04,0.8399999737739563,0.7072129845619202,0.7072129845619202
320,0.9800000190734863,0.04961438104510307,0.04961438104510307,1e-04,0.8299999833106995,0.7136619687080383,0.7136619687080383
321,0.9900000095367432,0.03480548784136772,0.03480548784136772,1e-04,0.8299999833106995,0.7189500331878662,0.7189500331878662
322,0.9900000095367432,0.017160523682832718,0.017160523682832718,1e-04,0.8299999833106995,0.7218695282936096,0.7218695282936096
323,0.9700000286102295,0.08224465698003769,0.08224465698003769,1e-04,0.8299999833106995,0.7207748293876648,0.7207748293876648
324,0.9900000095367432,0.030601708218455315,0.030601708218455315,1e-04,0.8299999833106995,0.7187681794166565,0.7187681794166565
325,0.9900000095367432,0.021660780534148216,0.021660780534148216,1e-04,0.8299999833106995,0.7150383591651917,0.7150383591651917
326,0.9800000190734863,0.03686462715268135,0.03686462715268135,1e-04,0.8299999833106995,0.707217812538147,0.707217812538147
327,1.0,0.018791744485497475,0.018791744485497475,1e-04,0.8299999833106995,0.6985460519790649,0.6985460519790649
328,0.9800000190734863,0.049586739391088486,0.049586739391088486,1e-04,0.8500000238418579,0.6929221153259277,0.6929221153259277
329,0.9900000095367432,0.02776634506881237,0.02776634506881237,1e-04,0.8500000238418579,0.689673900604248,0.689673900604248
330,1.0,0.010307119227945805,0.010307119227945805,1e-04,0.8399999737739563,0.6877203583717346,0.6877203583717346
331,1.0,0.01198815181851387,0.01198815181851387,1e-04,0.8500000238418579,0.686695396900177,0.686695396900177
332,0.9900000095367432,0.025794725865125656,0.025794725865125656,1e-04,0.8600000143051147,0.6872590780258179,0.6872590780258179
333,1.0,0.011916414834558964,0.011916414834558964,1e-04,0.8600000143051147,0.687995195388794,0.687995195388794
334,0.9800000190734863,0.04148707538843155,0.04148707538843155,1e-04,0.8600000143051147,0.6879165172576904,0.6879165172576904
335,1.0,0.008143379352986813,0.008143379352986813,1e-04,0.8600000143051147,0.6887269616127014,0.6887269616127014
336,0.9700000286102295,0.08897934854030609,0.08897934854030609,1e-04,0.8600000143051147,0.6883553862571716,0.6883553862571716
337,1.0,0.02237047627568245,0.02237047627568245,1e-04,0.8600000143051147,0.6878030300140381,0.6878030300140381
338,1.0,0.01960587315261364,0.01960587315261364,1e-04,0.8600000143051147,0.688438355922699,0.688438355922699
339,0.9599999785423279,0.07416529953479767,0.07416529953479767,1e-04,0.8600000143051147,0.6895964741706848,0.6895964741706848
340,0.9900000095367432,0.021957114338874817,0.021957114338874817,1e-04,0.8500000238418579,0.692599892616272,0.692599892616272
341,0.9900000095367432,0.024448515847325325,0.024448515847325325,1e-04,0.8500000238418579,0.6963679790496826,0.6963679790496826
342,0.9800000190734863,0.07810014486312866,0.07810014486312866,1e-04,0.8500000238418579,0.6970511674880981,0.6970511674880981
343,0.9599999785423279,0.07059341669082642,0.07059341669082642,1e-04,0.8500000238418579,0.6982269287109375,0.6982269287109375
344,1.0,0.012050122022628784,0.012050122022628784,1e-04,0.8500000238418579,0.69997239112854,0.69997239112854
345,1.0,0.015550489537417889,0.015550489537417889,1e-04,0.8399999737739563,0.7018002271652222,0.7018002271652222
346,0.9900000095367432,0.04180724546313286,0.04180724546313286,1e-04,0.8399999737739563,0.7029949426651001,0.7029949426651001
347,1.0,0.01674404926598072,0.01674404926598072,1e-04,0.8399999737739563,0.7034284472465515,0.7034284472465515
348,0.9900000095367432,0.048701606690883636,0.048701606690883636,1e-04,0.8399999737739563,0.7021057605743408,0.7021057605743408
349,0.9700000286102295,0.08797934651374817,0.08797934651374817,1e-04,0.8399999737739563,0.7001627087593079,0.7001627087593079
350,0.9599999785423279,0.04019255191087723,0.04019255191087723,1e-04,0.8399999737739563,0.6995359063148499,0.6995359063148499
351,1.0,0.009845168329775333,0.009845168329775333,1e-04,0.8399999737739563,0.6990198493003845,0.6990198493003845
352,0.9800000190734863,0.06866013258695602,0.06866013258695602,1e-04,0.8500000238418579,0.6975281238555908,0.6975281238555908
353,0.9900000095367432,0.01986226998269558,0.01986226998269558,1e-04,0.8500000238418579,0.6963351368904114,0.6963351368904114
354,0.9900000095367432,0.021083250641822815,0.021083250641822815,1e-04,0.8500000238418579,0.6965650916099548,0.6965650916099548
355,0.9900000095367432,0.024644315242767334,0.024644315242767334,1e-04,0.8500000238418579,0.6967259049415588,0.6967259049415588
356,1.0,0.015282545238733292,0.015282545238733292,1e-04,0.8500000238418579,0.6972212791442871,0.6972212791442871
357,0.9900000095367432,0.029871346428990364,0.029871346428990364,1e-04,0.8399999737739563,0.6978474259376526,0.6978474259376526
358,1.0,0.018360309302806854,0.018360309302806854,1e-04,0.8500000238418579,0.6982085704803467,0.6982085704803467
359,0.9800000190734863,0.03402271866798401,0.03402271866798401,1e-04,0.8399999737739563,0.6985731720924377,0.6985731720924377
360,1.0,0.026820650324225426,0.026820650324225426,1e-04,0.8399999737739563,0.6989184021949768,0.6989184021949768
361,1.0,0.025358734652400017,0.025358734652400017,1e-04,0.8399999737739563,0.6993924975395203,0.6993924975395203
362,0.9700000286102295,0.060448359698057175,0.060448359698057175,1e-04,0.8500000238418579,0.6994637846946716,0.6994637846946716
363,1.0,0.012762580998241901,0.012762580998241901,1e-04,0.8500000238418579,0.6994204521179199,0.6994204521179199
364,0.9599999785423279,0.07687105238437653,0.07687105238437653,1e-04,0.8500000238418579,0.6992081999778748,0.6992081999778748
365,0.9700000286102295,0.06732293963432312,0.06732293963432312,1e-04,0.8500000238418579,0.6999075412750244,0.6999075412750244
366,0.9800000190734863,0.03326484188437462,0.03326484188437462,1e-04,0.8500000238418579,0.7002120018005371,0.7002120018005371
367,1.0,0.009626194834709167,0.009626194834709167,1e-04,0.8500000238418579,0.7009058594703674,0.7009058594703674
368,0.9900000095367432,0.026079561561346054,0.026079561561346054,1e-04,0.8500000238418579,0.7021024227142334,0.7021024227142334
369,1.0,0.009809890761971474,0.009809890761971474,1e-04,0.8500000238418579,0.703636884689331,0.703636884689331
370,0.9800000190734863,0.042027562856674194,0.042027562856674194,1e-04,0.8500000238418579,0.7061487436294556,0.7061487436294556
371,1.0,0.014777976088225842,0.014777976088225842,1e-04,0.8500000238418579,0.7094852328300476,0.7094852328300476
372,0.9700000286102295,0.07509537041187286,0.07509537041187286,1e-04,0.8399999737739563,0.7124881148338318,0.7124881148338318
373,0.9700000286102295,0.06568524241447449,0.06568524241447449,1e-04,0.8500000238418579,0.7124345302581787,0.7124345302581787
374,1.0,0.01751619204878807,0.01751619204878807,1e-04,0.8500000238418579,0.7134227752685547,0.7134227752685547
375,1.0,0.0177594181150198,0.0177594181150198,1e-04,0.8500000238418579,0.7160374522209167,0.7160374522209167
376,0.9800000190734863,0.04941991716623306,0.04941991716623306,1e-04,0.8299999833106995,0.7219858765602112,0.7219858765602112
377,0.9800000190734863,0.05499709025025368,0.05499709025025368,1e-04,0.8299999833106995,0.7255793213844299,0.7255793213844299
378,0.9800000190734863,0.044909220188856125,0.044909220188856125,1e-04,0.8299999833106995,0.7286077737808228,0.7286077737808228
379,0.9900000095367432,0.025183234363794327,0.025183234363794327,1e-04,0.8299999833106995,0.7318023443222046,0.7318023443222046
380,1.0,0.01719052717089653,0.01719052717089653,1e-04,0.8299999833106995,0.735005259513855,0.735005259513855
381,0.9900000095367432,0.027661161497235298,0.027661161497235298,1e-04,0.8299999833106995,0.7368385195732117,0.7368385195732117
382,0.9900000095367432,0.020613253116607666,0.020613253116607666,1e-04,0.8500000238418579,0.7365352511405945,0.7365352511405945
383,0.9900000095367432,0.025218915194272995,0.025218915194272995,1e-04,0.8500000238418579,0.7378588318824768,0.7378588318824768
384,0.9900000095367432,0.01828581839799881,0.01828581839799881,1e-04,0.8500000238418579,0.7377671003341675,0.7377671003341675
385,0.9800000190734863,0.03388475254178047,0.03388475254178047,1e-04,0.8500000238418579,0.7380908727645874,0.7380908727645874
386,0.9900000095367432,0.02824675291776657,0.02824675291776657,1e-04,0.8500000238418579,0.7395898699760437,0.7395898699760437
387,0.9800000190734863,0.060431186109781265,0.060431186109781265,1e-04,0.8500000238418579,0.7398838996887207,0.7398838996887207
388,1.0,0.010471541434526443,0.010471541434526443,1e-04,0.8500000238418579,0.7398832440376282,0.7398832440376282
389,1.0,0.011296307668089867,0.011296307668089867,1e-04,0.8500000238418579,0.7406284213066101,0.7406284213066101
390,0.9800000190734863,0.03814085200428963,0.03814085200428963,1e-04,0.8399999737739563,0.7448359727859497,0.7448359727859497
391,0.9800000190734863,0.053101204335689545,0.053101204335689545,1e-04,0.8299999833106995,0.7505269050598145,0.7505269050598145
392,0.9900000095367432,0.024085229262709618,0.024085229262709618,1e-04,0.8299999833106995,0.7546813488006592,0.7546813488006592
393,0.9900000095367432,0.030773131176829338,0.030773131176829338,1e-04,0.8399999737739563,0.7586395740509033,0.7586395740509033
394,0.9599999785423279,0.0863509476184845,0.0863509476184845,1e-04,0.8399999737739563,0.7587627172470093,0.7587627172470093
395,0.9900000095367432,0.02522781305015087,0.02522781305015087,1e-04,0.8399999737739563,0.7544140815734863,0.7544140815734863
396,0.9599999785423279,0.09996550530195236,0.09996550530195236,1e-04,0.8299999833106995,0.7427798509597778,0.7427798509597778
397,1.0,0.013790872879326344,0.013790872879326344,1e-04,0.8500000238418579,0.7330551147460938,0.7330551147460938
398,0.9800000190734863,0.03263898193836212,0.03263898193836212,1e-04,0.8500000238418579,0.7289279699325562,0.7289279699325562
399,0.9700000286102295,0.03677639365196228,0.03677639365196228,1e-04,0.8500000238418579,0.7253456711769104,0.7253456711769104
400,0.9800000190734863,0.07586365938186646,0.07586365938186646,1e-04,0.8500000238418579,0.7230567932128906,0.7230567932128906
401,1.0,0.009172364138066769,0.009172364138066769,1e-04,0.8500000238418579,0.7217023968696594,0.7217023968696594
402,0.9800000190734863,0.12502729892730713,0.12502729892730713,1e-04,0.8600000143051147,0.721034824848175,0.721034824848175
403,0.9700000286102295,0.08621783554553986,0.08621783554553986,1e-04,0.8600000143051147,0.7199674844741821,0.7199674844741821
404,0.9900000095367432,0.03040449321269989,0.03040449321269989,1e-04,0.8600000143051147,0.7189090847969055,0.7189090847969055
405,0.9900000095367432,0.044795144349336624,0.044795144349336624,1e-04,0.8600000143051147,0.7181637287139893,0.7181637287139893
406,1.0,0.010908243246376514,0.010908243246376514,1e-04,0.8500000238418579,0.7182946801185608,0.7182946801185608
407,0.9800000190734863,0.060052815824747086,0.060052815824747086,1e-04,0.8500000238418579,0.7210236191749573,0.7210236191749573
408,0.9900000095367432,0.02616189420223236,0.02616189420223236,1e-04,0.8500000238418579,0.7238454222679138,0.7238454222679138
409,0.9900000095367432,0.023442214354872704,0.023442214354872704,1e-04,0.8500000238418579,0.7277648448944092,0.7277648448944092
410,0.9900000095367432,0.02178296260535717,0.02178296260535717,1e-04,0.8500000238418579,0.7317736148834229,0.7317736148834229
411,1.0,0.017907585948705673,0.017907585948705673,1e-04,0.8399999737739563,0.7355960607528687,0.7355960607528687
412,1.0,0.016155129298567772,0.016155129298567772,1e-04,0.8399999737739563,0.740131676197052,0.740131676197052
413,1.0,0.019658586010336876,0.019658586010336876,1e-04,0.8399999737739563,0.744096040725708,0.744096040725708
414,0.9900000095367432,0.027851393446326256,0.027851393446326256,1e-04,0.8500000238418579,0.7501779794692993,0.7501779794692993
415,0.9800000190734863,0.04188530147075653,0.04188530147075653,1e-04,0.8500000238418579,0.7576227784156799,0.7576227784156799
416,0.9900000095367432,0.023966465145349503,0.023966465145349503,1e-04,0.8500000238418579,0.7671116590499878,0.7671116590499878
417,0.9900000095367432,0.030716510489583015,0.030716510489583015,1e-04,0.8399999737739563,0.7771276831626892,0.7771276831626892
418,0.9800000190734863,0.02026740089058876,0.02026740089058876,1e-04,0.8399999737739563,0.7870191931724548,0.7870191931724548
419,0.9900000095367432,0.015969419851899147,0.015969419851899147,1e-04,0.8399999737739563,0.7929741740226746,0.7929741740226746
420,0.9800000190734863,0.05415068566799164,0.05415068566799164,1e-04,0.8399999737739563,0.7890742421150208,0.7890742421150208
421,1.0,0.021331312134861946,0.021331312134861946,1e-04,0.8500000238418579,0.7811349630355835,0.7811349630355835
422,0.9900000095367432,0.021197384223341942,0.021197384223341942,1e-04,0.8500000238418579,0.7732363939285278,0.7732363939285278
423,0.9700000286102295,0.04597363993525505,0.04597363993525505,1e-04,0.8500000238418579,0.7641119956970215,0.7641119956970215
424,0.9900000095367432,0.017306746914982796,0.017306746914982796,1e-04,0.8399999737739563,0.755124568939209,0.755124568939209
425,1.0,0.013762238435447216,0.013762238435447216,1e-04,0.8399999737739563,0.7492320537567139,0.7492320537567139
426,0.9599999785423279,0.09937828034162521,0.09937828034162521,1e-04,0.8399999737739563,0.7476041913032532,0.7476041913032532
427,0.9700000286102295,0.05052155628800392,0.05052155628800392,1e-04,0.8399999737739563,0.7445449829101562,0.7445449829101562
428,1.0,0.008512163534760475,0.008512163534760475,1e-04,0.8399999737739563,0.742240309715271,0.742240309715271
429,0.9800000190734863,0.033288292586803436,0.033288292586803436,1e-04,0.8399999737739563,0.7418570518493652,0.7418570518493652
430,0.9700000286102295,0.062302593141794205,0.062302593141794205,1e-04,0.8500000238418579,0.7410212755203247,0.7410212755203247
431,0.9900000095367432,0.02532218210399151,0.02532218210399151,1e-04,0.8500000238418579,0.7403182983398438,0.7403182983398438
432,0.9900000095367432,0.017400627955794334,0.017400627955794334,1e-04,0.8500000238418579,0.7393596172332764,0.7393596172332764
433,0.9900000095367432,0.02867654338479042,0.02867654338479042,1e-04,0.8500000238418579,0.7382296919822693,0.7382296919822693
434,0.9800000190734863,0.051902513951063156,0.051902513951063156,1e-04,0.8500000238418579,0.7369776368141174,0.7369776368141174
435,1.0,0.013184248469769955,0.013184248469769955,1e-04,0.8500000238418579,0.7361660003662109,0.7361660003662109
436,0.9800000190734863,0.05140416696667671,0.05140416696667671,1e-04,0.8500000238418579,0.7355434894561768,0.7355434894561768
437,0.9700000286102295,0.06051177904009819,0.06051177904009819,1e-04,0.8500000238418579,0.7347545027732849,0.7347545027732849
438,0.9900000095367432,0.02359216846525669,0.02359216846525669,1e-04,0.8500000238418579,0.73338782787323,0.73338782787323
439,0.9800000190734863,0.06047142669558525,0.06047142669558525,1e-04,0.8500000238418579,0.7326117753982544,0.7326117753982544
440,0.9700000286102295,0.0982988253235817,0.0982988253235817,1e-04,0.8500000238418579,0.734222412109375,0.734222412109375
441,0.9900000095367432,0.058543168008327484,0.058543168008327484,1e-04,0.8500000238418579,0.7332817912101746,0.7332817912101746
442,0.9800000190734863,0.030944552272558212,0.030944552272558212,1e-04,0.8500000238418579,0.732021152973175,0.732021152973175
443,1.0,0.01109280064702034,0.01109280064702034,1e-04,0.8500000238418579,0.732466459274292,0.732466459274292
444,0.9800000190734863,0.03708512708544731,0.03708512708544731,1e-04,0.8500000238418579,0.7313812375068665,0.7313812375068665
445,0.9800000190734863,0.08840180188417435,0.08840180188417435,1e-04,0.8500000238418579,0.7292527556419373,0.7292527556419373
446,0.9800000190734863,0.02920062281191349,0.02920062281191349,1e-04,0.8500000238418579,0.727718710899353,0.727718710899353
447,0.9900000095367432,0.035744909197092056,0.035744909197092056,1e-04,0.8500000238418579,0.7264785170555115,0.7264785170555115
448,0.9800000190734863,0.06519028544425964,0.06519028544425964,1e-04,0.8500000238418579,0.7256134748458862,0.7256134748458862
449,0.9900000095367432,0.02719252184033394,0.02719252184033394,1e-04,0.8500000238418579,0.7246371507644653,0.7246371507644653
450,0.9800000190734863,0.05942603573203087,0.05942603573203087,1e-04,0.8500000238418579,0.7246383428573608,0.7246383428573608
451,0.9800000190734863,0.026613915339112282,0.026613915339112282,1e-04,0.8500000238418579,0.7244303226470947,0.7244303226470947
452,0.9700000286102295,0.044544339179992676,0.044544339179992676,1e-04,0.8500000238418579,0.7228208184242249,0.7228208184242249
453,1.0,0.011442756280303001,0.011442756280303001,1e-04,0.8399999737739563,0.7217587232589722,0.7217587232589722
454,0.9700000286102295,0.08692731708288193,0.08692731708288193,1e-04,0.8399999737739563,0.7203847765922546,0.7203847765922546
455,0.9800000190734863,0.035801179707050323,0.035801179707050323,1e-04,0.8500000238418579,0.7188622355461121,0.7188622355461121
456,0.9900000095367432,0.032833755016326904,0.032833755016326904,1e-04,0.8500000238418579,0.717628538608551,0.717628538608551
457,0.9900000095367432,0.019841469824314117,0.019841469824314117,1e-04,0.8500000238418579,0.7172706127166748,0.7172706127166748
458,0.9800000190734863,0.049526408314704895,0.049526408314704895,1e-04,0.8500000238418579,0.7165946364402771,0.7165946364402771
459,0.9900000095367432,0.02732793055474758,0.02732793055474758,1e-04,0.8600000143051147,0.7162535190582275,0.7162535190582275
460,1.0,0.014056951738893986,0.014056951738893986,1e-04,0.8600000143051147,0.7163074612617493,0.7163074612617493
461,1.0,0.0241189356893301,0.0241189356893301,1e-04,0.8600000143051147,0.7168036699295044,0.7168036699295044
462,1.0,0.009905442595481873,0.009905442595481873,1e-04,0.8600000143051147,0.7178004384040833,0.7178004384040833
463,0.9700000286102295,0.06571166217327118,0.06571166217327118,1e-04,0.8399999737739563,0.7178564667701721,0.7178564667701721
464,0.9800000190734863,0.03397884964942932,0.03397884964942932,1e-04,0.8399999737739563,0.7211434245109558,0.7211434245109558
465,0.9900000095367432,0.019141988828778267,0.019141988828778267,1e-04,0.8299999833106995,0.7283194661140442,0.7283194661140442
466,0.9700000286102295,0.06619945168495178,0.06619945168495178,1e-04,0.8399999737739563,0.7392602562904358,0.7392602562904358
467,0.9900000095367432,0.026325540617108345,0.026325540617108345,1e-04,0.8299999833106995,0.7548982501029968,0.7548982501029968
468,1.0,0.004763402510434389,0.004763402510434389,1e-04,0.8299999833106995,0.7717977166175842,0.7717977166175842
469,0.9900000095367432,0.02276720106601715,0.02276720106601715,1e-04,0.8399999737739563,0.7848657369613647,0.7848657369613647
470,1.0,0.0106957470998168,0.0106957470998168,1e-04,0.8500000238418579,0.7966816425323486,0.7966816425323486
471,0.9900000095367432,0.018342049792408943,0.018342049792408943,1e-04,0.8500000238418579,0.8023107647895813,0.8023107647895813
472,0.9800000190734863,0.04178746044635773,0.04178746044635773,1e-04,0.8399999737739563,0.7958310842514038,0.7958310842514038
473,1.0,0.018624117597937584,0.018624117597937584,1e-04,0.8399999737739563,0.7853434681892395,0.7853434681892395
474,0.9800000190734863,0.023100245743989944,0.023100245743989944,1e-04,0.8299999833106995,0.7719623446464539,0.7719623446464539
475,0.9900000095367432,0.0204864963889122,0.0204864963889122,1e-04,0.8399999737739563,0.7577760219573975,0.7577760219573975
476,0.9900000095367432,0.03880072012543678,0.03880072012543678,1e-04,0.8399999737739563,0.7438084483146667,0.7438084483146667
477,0.9700000286102295,0.03911412134766579,0.03911412134766579,1e-04,0.8399999737739563,0.7391042113304138,0.7391042113304138
478,1.0,0.010420484468340874,0.010420484468340874,1e-04,0.8399999737739563,0.7351597547531128,0.7351597547531128
479,1.0,0.012216497212648392,0.012216497212648392,1e-04,0.8399999737739563,0.7330749034881592,0.7330749034881592
480,1.0,0.02064230665564537,0.02064230665564537,1e-04,0.8500000238418579,0.7328447699546814,0.7328447699546814
481,1.0,0.00810517743229866,0.00810517743229866,1e-04,0.8700000047683716,0.7336313724517822,0.7336313724517822
482,0.9800000190734863,0.05687107890844345,0.05687107890844345,1e-04,0.8700000047683716,0.7369239926338196,0.7369239926338196
483,0.9800000190734863,0.045077599585056305,0.045077599585056305,1e-04,0.8700000047683716,0.7398044466972351,0.7398044466972351
484,0.9900000095367432,0.03432585299015045,0.03432585299015045,1e-04,0.8700000047683716,0.7416618466377258,0.7416618466377258
485,0.9599999785423279,0.07534519582986832,0.07534519582986832,1e-04,0.8500000238418579,0.7423474192619324,0.7423474192619324
486,0.9900000095367432,0.031014112755656242,0.031014112755656242,1e-04,0.8399999737739563,0.745003342628479,0.745003342628479
487,0.9900000095367432,0.039131179451942444,0.039131179451942444,1e-04,0.8399999737739563,0.7513800859451294,0.7513800859451294
488,1.0,0.009127271361649036,0.009127271361649036,1e-04,0.8399999737739563,0.7597106695175171,0.7597106695175171
489,0.9800000190734863,0.08934634178876877,0.08934634178876877,1e-04,0.8399999737739563,0.7596105933189392,0.7596105933189392
490,0.9900000095367432,0.013961540535092354,0.013961540535092354,1e-04,0.8399999737739563,0.7580887079238892,0.7580887079238892
491,0.9900000095367432,0.03434998169541359,0.03434998169541359,1e-04,0.8399999737739563,0.7545955181121826,0.7545955181121826
492,0.9700000286102295,0.05391640216112137,0.05391640216112137,1e-04,0.8399999737739563,0.7525160908699036,0.7525160908699036
493,1.0,0.021017931401729584,0.021017931401729584,1e-04,0.8399999737739563,0.7488438487052917,0.7488438487052917
494,0.9700000286102295,0.0678386241197586,0.0678386241197586,1e-04,0.8399999737739563,0.747158408164978,0.747158408164978
495,0.9900000095367432,0.02098000794649124,0.02098000794649124,1e-04,0.8399999737739563,0.7428711652755737,0.7428711652755737
496,0.9900000095367432,0.024457326158881187,0.024457326158881187,1e-04,0.8399999737739563,0.7356429100036621,0.7356429100036621
497,0.9900000095367432,0.01671544834971428,0.01671544834971428,1e-04,0.8399999737739563,0.7297607660293579,0.7297607660293579
498,0.9800000190734863,0.03625433146953583,0.03625433146953583,1e-04,0.8399999737739563,0.7252298593521118,0.7252298593521118
499,0.9700000286102295,0.05390213802456856,0.05390213802456856,1e-04,0.8500000238418579,0.7224347591400146,0.7224347591400146
500,0.9700000286102295,0.05341217666864395,0.05341217666864395,1e-04,0.8500000238418579,0.721192479133606,0.721192479133606
501,0.9900000095367432,0.023601574823260307,0.023601574823260307,1e-04,0.8500000238418579,0.7213532328605652,0.7213532328605652
502,0.9700000286102295,0.06599319726228714,0.06599319726228714,1e-04,0.8500000238418579,0.7238886952400208,0.7238886952400208
503,0.9900000095367432,0.038884274661540985,0.038884274661540985,1e-04,0.8399999737739563,0.7289769649505615,0.7289769649505615
504,0.9599999785423279,0.07180473208427429,0.07180473208427429,1e-04,0.8299999833106995,0.7366129159927368,0.7366129159927368
505,0.9800000190734863,0.03375266119837761,0.03375266119837761,1e-04,0.8399999737739563,0.743838369846344,0.743838369846344
506,0.9599999785423279,0.09418634325265884,0.09418634325265884,1e-04,0.8399999737739563,0.7522863745689392,0.7522863745689392
507,0.9900000095367432,0.028515849262475967,0.028515849262475967,1e-04,0.8299999833106995,0.761677622795105,0.761677622795105
508,0.9800000190734863,0.03056846372783184,0.03056846372783184,1e-04,0.8299999833106995,0.7696971297264099,0.7696971297264099
509,1.0,0.011177483014762402,0.011177483014762402,1e-04,0.8299999833106995,0.7790467143058777,0.7790467143058777
510,0.9900000095367432,0.026516258716583252,0.026516258716583252,1e-04,0.8299999833106995,0.7850061058998108,0.7850061058998108
511,0.9900000095367432,0.021586641669273376,0.021586641669273376,1e-04,0.8299999833106995,0.7870678901672363,0.7870678901672363
512,0.9900000095367432,0.05174660682678223,0.05174660682678223,1e-04,0.8299999833106995,0.780283510684967,0.780283510684967
513,0.9900000095367432,0.019691849127411842,0.019691849127411842,1e-04,0.8299999833106995,0.7741661071777344,0.7741661071777344
514,0.9800000190734863,0.04486231878399849,0.04486231878399849,1e-04,0.8299999833106995,0.7693076133728027,0.7693076133728027
515,0.9800000190734863,0.08548614382743835,0.08548614382743835,1e-04,0.8399999737739563,0.7584707736968994,0.7584707736968994
516,0.9900000095367432,0.028667762875556946,0.028667762875556946,1e-04,0.8299999833106995,0.7493733763694763,0.7493733763694763
517,0.9800000190734863,0.03292383253574371,0.03292383253574371,1e-04,0.8299999833106995,0.7446204423904419,0.7446204423904419
518,0.9700000286102295,0.07188347727060318,0.07188347727060318,1e-04,0.8299999833106995,0.7374818921089172,0.7374818921089172
519,0.9900000095367432,0.026441149413585663,0.026441149413585663,1e-04,0.8600000143051147,0.7343323230743408,0.7343323230743408
520,0.9900000095367432,0.021475141867995262,0.021475141867995262,1e-04,0.8600000143051147,0.7331482172012329,0.7331482172012329
521,0.9700000286102295,0.045602817088365555,0.045602817088365555,1e-04,0.8600000143051147,0.7321842908859253,0.7321842908859253
522,0.9900000095367432,0.03224903717637062,0.03224903717637062,1e-04,0.8600000143051147,0.7313755750656128,0.7313755750656128
523,0.9700000286102295,0.05238834768533707,0.05238834768533707,1e-04,0.8600000143051147,0.7312114834785461,0.7312114834785461
524,1.0,0.01997174322605133,0.01997174322605133,1e-04,0.8600000143051147,0.7315060496330261,0.7315060496330261
525,0.9800000190734863,0.041086629033088684,0.041086629033088684,1e-04,0.8399999737739563,0.7324268817901611,0.7324268817901611
526,1.0,0.02621622011065483,0.02621622011065483,1e-04,0.8299999833106995,0.7348003387451172,0.7348003387451172
527,0.9900000095367432,0.028018876910209656,0.028018876910209656,1e-04,0.8299999833106995,0.7368298172950745,0.7368298172950745
528,0.9900000095367432,0.03159527853131294,0.03159527853131294,1e-04,0.8299999833106995,0.7412629723548889,0.7412629723548889
529,1.0,0.014929540455341339,0.014929540455341339,1e-04,0.8299999833106995,0.7450752258300781,0.7450752258300781
530,1.0,0.00684319157153368,0.00684319157153368,1e-04,0.8399999737739563,0.7483490705490112,0.7483490705490112
531,1.0,0.007824096828699112,0.007824096828699112,1e-04,0.8399999737739563,0.7514503598213196,0.7514503598213196
532,0.9700000286102295,0.04443882405757904,0.04443882405757904,1e-04,0.8399999737739563,0.7492659687995911,0.7492659687995911
533,0.9900000095367432,0.036323778331279755,0.036323778331279755,1e-04,0.8299999833106995,0.7450540661811829,0.7450540661811829
534,0.9900000095367432,0.025024518370628357,0.025024518370628357,1e-04,0.8299999833106995,0.7437684535980225,0.7437684535980225
535,0.9900000095367432,0.02193334326148033,0.02193334326148033,1e-04,0.8299999833106995,0.7434467077255249,0.7434467077255249
536,0.9900000095367432,0.03802882507443428,0.03802882507443428,1e-04,0.8299999833106995,0.7453473806381226,0.7453473806381226
537,0.9700000286102295,0.0696355327963829,0.0696355327963829,1e-04,0.8299999833106995,0.7450132966041565,0.7450132966041565
538,0.9800000190734863,0.03967496007680893,0.03967496007680893,1e-04,0.8299999833106995,0.7439073920249939,0.7439073920249939
539,1.0,0.01328930351883173,0.01328930351883173,1e-04,0.8299999833106995,0.7435724139213562,0.7435724139213562
540,0.9900000095367432,0.039218708872795105,0.039218708872795105,1e-04,0.8299999833106995,0.7439970374107361,0.7439970374107361
541,0.9900000095367432,0.05463455617427826,0.05463455617427826,1e-04,0.8299999833106995,0.7453749179840088,0.7453749179840088
542,0.9900000095367432,0.03725457563996315,0.03725457563996315,1e-04,0.8399999737739563,0.7496525645256042,0.7496525645256042
543,0.9800000190734863,0.054660070687532425,0.054660070687532425,1e-04,0.8399999737739563,0.7562864422798157,0.7562864422798157
544,0.9900000095367432,0.024033045396208763,0.024033045396208763,1e-04,0.8399999737739563,0.7629257440567017,0.7629257440567017
545,0.9900000095367432,0.021924328058958054,0.021924328058958054,1e-04,0.8399999737739563,0.7663735747337341,0.7663735747337341
546,1.0,0.01918950118124485,0.01918950118124485,1e-04,0.8399999737739563,0.7713517546653748,0.7713517546653748
547,0.9700000286102295,0.051242537796497345,0.051242537796497345,1e-04,0.8399999737739563,0.7732717394828796,0.7732717394828796
548,0.9900000095367432,0.022189095616340637,0.022189095616340637,1e-04,0.8299999833106995,0.7760669589042664,0.7760669589042664
549,0.9800000190734863,0.03976362943649292,0.03976362943649292,1e-04,0.8299999833106995,0.7826074361801147,0.7826074361801147
550,0.9800000190734863,0.046327363699674606,0.046327363699674606,1e-04,0.8299999833106995,0.7795107960700989,0.7795107960700989
551,0.9900000095367432,0.03855113685131073,0.03855113685131073,1e-04,0.8299999833106995,0.7722045183181763,0.7722045183181763
552,1.0,0.026303818449378014,0.026303818449378014,1e-04,0.8399999737739563,0.762052595615387,0.762052595615387
553,1.0,0.009745747782289982,0.009745747782289982,1e-04,0.8399999737739563,0.7543975710868835,0.7543975710868835
554,0.9900000095367432,0.020838791504502296,0.020838791504502296,1e-04,0.8399999737739563,0.7473571300506592,0.7473571300506592
555,0.9599999785423279,0.04438433051109314,0.04438433051109314,1e-04,0.8399999737739563,0.7457029223442078,0.7457029223442078
556,1.0,0.006624581757932901,0.006624581757932901,1e-04,0.8399999737739563,0.7442771792411804,0.7442771792411804
557,0.9800000190734863,0.031686633825302124,0.031686633825302124,1e-04,0.8399999737739563,0.7471583485603333,0.7471583485603333
558,0.9800000190734863,0.0364673025906086,0.0364673025906086,1e-04,0.8399999737739563,0.7491655945777893,0.7491655945777893
559,1.0,0.006703849881887436,0.006703849881887436,1e-04,0.8399999737739563,0.7523887157440186,0.7523887157440186
560,1.0,0.013806718401610851,0.013806718401610851,1e-04,0.8399999737739563,0.7545915246009827,0.7545915246009827
561,0.9900000095367432,0.021135812625288963,0.021135812625288963,1e-04,0.8399999737739563,0.7580811977386475,0.7580811977386475
562,0.9800000190734863,0.025834864005446434,0.025834864005446434,1e-04,0.8399999737739563,0.7622125148773193,0.7622125148773193
563,0.9900000095367432,0.034558966755867004,0.034558966755867004,1e-04,0.8399999737739563,0.7630967497825623,0.7630967497825623
564,0.9900000095367432,0.023044055327773094,0.023044055327773094,1e-04,0.8399999737739563,0.7624201774597168,0.7624201774597168
565,0.9900000095367432,0.05095158517360687,0.05095158517360687,1e-04,0.8399999737739563,0.7658340930938721,0.7658340930938721
566,0.9900000095367432,0.02316812239587307,0.02316812239587307,1e-04,0.8399999737739563,0.7703975439071655,0.7703975439071655
567,0.9900000095367432,0.03775065764784813,0.03775065764784813,1e-04,0.8399999737739563,0.769212543964386,0.769212543964386
568,0.9700000286102295,0.04830215126276016,0.04830215126276016,1e-04,0.8399999737739563,0.7641942501068115,0.7641942501068115
569,0.9900000095367432,0.024985406547784805,0.024985406547784805,1e-04,0.8299999833106995,0.7585091590881348,0.7585091590881348
570,0.9800000190734863,0.03455851227045059,0.03455851227045059,1e-04,0.8299999833106995,0.7576091289520264,0.7576091289520264
571,0.9900000095367432,0.026695342734456062,0.026695342734456062,1e-04,0.8299999833106995,0.7569391131401062,0.7569391131401062
572,0.9800000190734863,0.06579829007387161,0.06579829007387161,1e-04,0.8299999833106995,0.7530696988105774,0.7530696988105774
573,1.0,0.008582167327404022,0.008582167327404022,1e-04,0.8399999737739563,0.7502179145812988,0.7502179145812988
574,0.9900000095367432,0.015331126749515533,0.015331126749515533,1e-04,0.8399999737739563,0.7469552755355835,0.7469552755355835
575,1.0,0.007981324568390846,0.007981324568390846,1e-04,0.8399999737739563,0.7450695633888245,0.7450695633888245
576,1.0,0.01374201849102974,0.01374201849102974,1e-04,0.8600000143051147,0.7439364790916443,0.7439364790916443
577,0.9700000286102295,0.04852895438671112,0.04852895438671112,1e-04,0.8500000238418579,0.744733452796936,0.744733452796936
578,0.9900000095367432,0.03764769807457924,0.03764769807457924,1e-04,0.8399999737739563,0.7461716532707214,0.7461716532707214
579,1.0,0.009075728245079517,0.009075728245079517,1e-04,0.8399999737739563,0.7484195828437805,0.7484195828437805
580,1.0,0.015093009918928146,0.015093009918928146,1e-04,0.8399999737739563,0.7520199418067932,0.7520199418067932
581,0.9900000095367432,0.030264385044574738,0.030264385044574738,1e-04,0.8299999833106995,0.7550138831138611,0.7550138831138611
582,1.0,0.014543097466230392,0.014543097466230392,1e-04,0.8299999833106995,0.7569279670715332,0.7569279670715332
583,0.9900000095367432,0.03349478542804718,0.03349478542804718,1e-04,0.8299999833106995,0.7595583200454712,0.7595583200454712
584,1.0,0.014332829974591732,0.014332829974591732,1e-04,0.8299999833106995,0.7618080377578735,0.7618080377578735
585,0.9599999785423279,0.09971881657838821,0.09971881657838821,1e-04,0.8299999833106995,0.7710522413253784,0.7710522413253784
586,0.9900000095367432,0.0248207226395607,0.0248207226395607,1e-04,0.8399999737739563,0.7796334624290466,0.7796334624290466
587,1.0,0.004522619768977165,0.004522619768977165,1e-04,0.8399999737739563,0.7882736325263977,0.7882736325263977
588,0.9900000095367432,0.03415818512439728,0.03415818512439728,1e-04,0.8399999737739563,0.7926796078681946,0.7926796078681946
589,0.9800000190734863,0.04288625717163086,0.04288625717163086,1e-04,0.8399999737739563,0.7937970161437988,0.7937970161437988
590,0.9800000190734863,0.052631963044404984,0.052631963044404984,1e-04,0.8399999737739563,0.7875491380691528,0.7875491380691528
591,1.0,0.004552751313894987,0.004552751313894987,1e-04,0.8399999737739563,0.782523512840271,0.782523512840271
592,0.9800000190734863,0.05444635823369026,0.05444635823369026,1e-04,0.8399999737739563,0.7800610065460205,0.7800610065460205
593,1.0,0.019102998077869415,0.019102998077869415,1e-04,0.8299999833106995,0.7781982421875,0.7781982421875
594,1.0,0.0209725983440876,0.0209725983440876,1e-04,0.8500000238418579,0.7773840427398682,0.7773840427398682
595,1.0,0.017148122191429138,0.017148122191429138,1e-04,0.8500000238418579,0.7789728045463562,0.7789728045463562
596,0.9800000190734863,0.05090988054871559,0.05090988054871559,1e-04,0.8500000238418579,0.7806020975112915,0.7806020975112915
597,0.9700000286102295,0.08588641881942749,0.08588641881942749,1e-04,0.8500000238418579,0.7833338379859924,0.7833338379859924
598,1.0,0.013125547207891941,0.013125547207891941,1e-04,0.8500000238418579,0.7864066958427429,0.7864066958427429
599,1.0,0.015295377001166344,0.015295377001166344,1e-04,0.8500000238418579,0.7903263568878174,0.7903263568878174
600,0.9900000095367432,0.02909764274954796,0.02909764274954796,1e-04,0.8500000238418579,0.7954606413841248,0.7954606413841248
601,1.0,0.012247942388057709,0.012247942388057709,1e-04,0.8500000238418579,0.8011032342910767,0.8011032342910767
602,1.0,0.012894720770418644,0.012894720770418644,1e-04,0.8399999737739563,0.807365894317627,0.807365894317627
603,0.9800000190734863,0.02862541191279888,0.02862541191279888,1e-04,0.8399999737739563,0.8163084983825684,0.8163084983825684
604,1.0,0.012996302917599678,0.012996302917599678,1e-04,0.8399999737739563,0.8255481123924255,0.8255481123924255
605,0.9900000095367432,0.03009757213294506,0.03009757213294506,1e-04,0.8399999737739563,0.8307873010635376,0.8307873010635376
606,1.0,0.011466491036117077,0.011466491036117077,1e-04,0.8500000238418579,0.8357453942298889,0.8357453942298889
607,0.9800000190734863,0.044192660599946976,0.044192660599946976,1e-04,0.8399999737739563,0.8314899206161499,0.8314899206161499
608,0.9900000095367432,0.04314190894365311,0.04314190894365311,1e-04,0.8399999737739563,0.825559675693512,0.825559675693512
609,1.0,0.010210398584604263,0.010210398584604263,1e-04,0.8399999737739563,0.8205075860023499,0.8205075860023499
610,1.0,0.009768396615982056,0.009768396615982056,1e-04,0.8399999737739563,0.8160104155540466,0.8160104155540466
611,0.9900000095367432,0.013667880557477474,0.013667880557477474,1e-04,0.8399999737739563,0.8109872341156006,0.8109872341156006
612,1.0,0.011429873295128345,0.011429873295128345,1e-04,0.8299999833106995,0.8069736957550049,0.8069736957550049
613,1.0,0.010403851047158241,0.010403851047158241,1e-04,0.8299999833106995,0.8028736114501953,0.8028736114501953
614,0.9900000095367432,0.035871170461177826,0.035871170461177826,1e-04,0.8299999833106995,0.8009524345397949,0.8009524345397949
615,0.9700000286102295,0.0576406754553318,0.0576406754553318,1e-04,0.8299999833106995,0.7956556677818298,0.7956556677818298
616,0.9800000190734863,0.029778046533465385,0.029778046533465385,1e-04,0.8299999833106995,0.7935926914215088,0.7935926914215088
617,0.9900000095367432,0.03323502838611603,0.03323502838611603,1e-04,0.8299999833106995,0.7926265001296997,0.7926265001296997
618,0.9900000095367432,0.02667902037501335,0.02667902037501335,1e-04,0.8299999833106995,0.7926807403564453,0.7926807403564453
619,0.9900000095367432,0.020070243626832962,0.020070243626832962,1e-04,0.8299999833106995,0.7927941679954529,0.7927941679954529
620,1.0,0.01432595495134592,0.01432595495134592,1e-04,0.8299999833106995,0.7920452952384949,0.7920452952384949
621,0.9900000095367432,0.04197055473923683,0.04197055473923683,1e-04,0.8299999833106995,0.7894076704978943,0.7894076704978943
622,0.9900000095367432,0.030216576531529427,0.030216576531529427,1e-04,0.8299999833106995,0.7865884900093079,0.7865884900093079
623,1.0,0.00937502458691597,0.00937502458691597,1e-04,0.8299999833106995,0.7851431369781494,0.7851431369781494
624,0.9900000095367432,0.019254285842180252,0.019254285842180252,1e-04,0.8299999833106995,0.783829927444458,0.783829927444458
625,0.9900000095367432,0.023436928167939186,0.023436928167939186,1e-04,0.8299999833106995,0.7823598384857178,0.7823598384857178
626,0.9900000095367432,0.02489316649734974,0.02489316649734974,1e-04,0.8299999833106995,0.7808753848075867,0.7808753848075867
627,0.9900000095367432,0.023010987788438797,0.023010987788438797,1e-04,0.8399999737739563,0.7803028225898743,0.7803028225898743
628,0.9800000190734863,0.04459372162818909,0.04459372162818909,1e-04,0.8399999737739563,0.7817444801330566,0.7817444801330566
629,1.0,0.009553714655339718,0.009553714655339718,1e-04,0.8299999833106995,0.7845091819763184,0.7845091819763184
630,1.0,0.010715548880398273,0.010715548880398273,1e-04,0.8299999833106995,0.7874795794487,0.7874795794487
631,0.9700000286102295,0.05284113436937332,0.05284113436937332,1e-04,0.8299999833106995,0.789857804775238,0.789857804775238
632,1.0,0.01858198642730713,0.01858198642730713,1e-04,0.8299999833106995,0.7912936210632324,0.7912936210632324
633,0.9900000095367432,0.021652325987815857,0.021652325987815857,1e-04,0.8299999833106995,0.7945417165756226,0.7945417165756226
634,1.0,0.015962526202201843,0.015962526202201843,1e-04,0.8299999833106995,0.7982504367828369,0.7982504367828369
635,0.9900000095367432,0.024673037230968475,0.024673037230968475,1e-04,0.8299999833106995,0.8031989336013794,0.8031989336013794
636,0.9900000095367432,0.02790774591267109,0.02790774591267109,1e-04,0.8299999833106995,0.8042824268341064,0.8042824268341064
637,1.0,0.006798336282372475,0.006798336282372475,1e-04,0.8299999833106995,0.8046616911888123,0.8046616911888123
638,0.9700000286102295,0.03950435295701027,0.03950435295701027,1e-04,0.8299999833106995,0.8083526492118835,0.8083526492118835
639,1.0,0.011049501597881317,0.011049501597881317,1e-04,0.8299999833106995,0.8103348612785339,0.8103348612785339
640,1.0,0.017244791612029076,0.017244791612029076,1e-04,0.8299999833106995,0.810010552406311,0.810010552406311
641,1.0,0.008670368231832981,0.008670368231832981,1e-04,0.8299999833106995,0.8098618388175964,0.8098618388175964
642,1.0,0.016511691734194756,0.016511691734194756,1e-04,0.8299999833106995,0.8130504488945007,0.8130504488945007
643,1.0,0.011160044930875301,0.011160044930875301,1e-04,0.8299999833106995,0.8169899582862854,0.8169899582862854
644,0.9900000095367432,0.057698626071214676,0.057698626071214676,1e-04,0.8299999833106995,0.8186312913894653,0.8186312913894653
645,0.9900000095367432,0.05236420780420303,0.05236420780420303,1e-04,0.8299999833106995,0.8155370354652405,0.8155370354652405
646,0.9900000095367432,0.029204217717051506,0.029204217717051506,1e-04,0.8299999833106995,0.8121933937072754,0.8121933937072754
647,0.9800000190734863,0.02741357311606407,0.02741357311606407,1e-04,0.8299999833106995,0.8124446272850037,0.8124446272850037
648,0.9800000190734863,0.025407498702406883,0.025407498702406883,1e-04,0.8299999833106995,0.813132643699646,0.813132643699646
649,1.0,0.01459471508860588,0.01459471508860588,1e-04,0.8299999833106995,0.8138934373855591,0.8138934373855591
650,0.9800000190734863,0.05321340262889862,0.05321340262889862,1e-04,0.8299999833106995,0.8168365359306335,0.8168365359306335
651,0.9800000190734863,0.020320361480116844,0.020320361480116844,1e-04,0.8299999833106995,0.8203906416893005,0.8203906416893005
652,1.0,0.014106038957834244,0.014106038957834244,1e-04,0.8399999737739563,0.8224707841873169,0.8224707841873169
653,1.0,0.012532231397926807,0.012532231397926807,1e-04,0.8399999737739563,0.8255797624588013,0.8255797624588013
654,1.0,0.010344560258090496,0.010344560258090496,1e-04,0.8399999737739563,0.8272167444229126,0.8272167444229126
655,1.0,0.008584626019001007,0.008584626019001007,1e-04,0.8399999737739563,0.8287069201469421,0.8287069201469421
656,0.9900000095367432,0.025790104642510414,0.025790104642510414,1e-04,0.8399999737739563,0.8281908631324768,0.8281908631324768
657,0.9700000286102295,0.09487039595842361,0.09487039595842361,1e-04,0.8399999737739563,0.8231026530265808,0.8231026530265808
658,1.0,0.018682191148400307,0.018682191148400307,1e-04,0.8399999737739563,0.8180162310600281,0.8180162310600281
659,0.9900000095367432,0.01047003548592329,0.01047003548592329,1e-04,0.8399999737739563,0.812568724155426,0.812568724155426
660,0.9800000190734863,0.02980681136250496,0.02980681136250496,1e-04,0.8299999833106995,0.8092557787895203,0.8092557787895203
661,1.0,0.004507835954427719,0.004507835954427719,1e-04,0.8299999833106995,0.8069957494735718,0.8069957494735718
662,0.9900000095367432,0.02562827803194523,0.02562827803194523,1e-04,0.8299999833106995,0.8044878244400024,0.8044878244400024
663,0.9800000190734863,0.03556177392601967,0.03556177392601967,1e-04,0.8299999833106995,0.8038769364356995,0.8038769364356995
664,0.9900000095367432,0.036465153098106384,0.036465153098106384,1e-04,0.8399999737739563,0.801841676235199,0.801841676235199
665,0.9800000190734863,0.03571947664022446,0.03571947664022446,1e-04,0.8399999737739563,0.79876708984375,0.79876708984375
666,0.9700000286102295,0.07461035996675491,0.07461035996675491,1e-04,0.8299999833106995,0.7994316220283508,0.7994316220283508
667,0.9800000190734863,0.03669702634215355,0.03669702634215355,1e-04,0.8299999833106995,0.800629198551178,0.800629198551178
668,0.9700000286102295,0.0471135713160038,0.0471135713160038,1e-04,0.8399999737739563,0.8059359788894653,0.8059359788894653
669,0.9900000095367432,0.01660161465406418,0.01660161465406418,1e-04,0.8399999737739563,0.8103866577148438,0.8103866577148438
670,0.9800000190734863,0.05701373890042305,0.05701373890042305,1e-04,0.8399999737739563,0.8162846565246582,0.8162846565246582
671,0.9900000095367432,0.022506756708025932,0.022506756708025932,1e-04,0.8299999833106995,0.8218007683753967,0.8218007683753967
672,1.0,0.01716304011642933,0.01716304011642933,1e-04,0.8299999833106995,0.8231516480445862,0.8231516480445862
673,1.0,0.005693360697478056,0.005693360697478056,1e-04,0.8299999833106995,0.8241714239120483,0.8241714239120483
674,0.9800000190734863,0.03433263674378395,0.03433263674378395,1e-04,0.8299999833106995,0.8229688405990601,0.8229688405990601
675,0.9599999785423279,0.0664488673210144,0.0664488673210144,1e-04,0.8299999833106995,0.8220317363739014,0.8220317363739014
676,0.9700000286102295,0.060864467173814774,0.060864467173814774,1e-04,0.8399999737739563,0.811356782913208,0.811356782913208
677,0.9800000190734863,0.039036378264427185,0.039036378264427185,1e-04,0.8399999737739563,0.7964354753494263,0.7964354753494263
678,1.0,0.022008633241057396,0.022008633241057396,1e-04,0.8399999737739563,0.784606397151947,0.784606397151947
679,1.0,0.0044347187504172325,0.0044347187504172325,1e-04,0.8299999833106995,0.7772939205169678,0.7772939205169678
680,0.9900000095367432,0.02514527551829815,0.02514527551829815,1e-04,0.8399999737739563,0.7719756364822388,0.7719756364822388
681,0.9800000190734863,0.04345905780792236,0.04345905780792236,1e-04,0.8500000238418579,0.7695561051368713,0.7695561051368713
682,0.9800000190734863,0.08632006496191025,0.08632006496191025,1e-04,0.8600000143051147,0.7697592377662659,0.7697592377662659
683,0.9800000190734863,0.059432800859212875,0.059432800859212875,1e-04,0.8600000143051147,0.770345151424408,0.770345151424408
684,1.0,0.020006990060210228,0.020006990060210228,1e-04,0.8600000143051147,0.7706671953201294,0.7706671953201294
685,1.0,0.012773933820426464,0.012773933820426464,1e-04,0.8500000238418579,0.7721924781799316,0.7721924781799316
686,0.9900000095367432,0.028873343020677567,0.028873343020677567,1e-04,0.8500000238418579,0.7741156220436096,0.7741156220436096
687,0.9900000095367432,0.020843464881181717,0.020843464881181717,1e-04,0.8299999833106995,0.7773197889328003,0.7773197889328003
688,0.9900000095367432,0.02916461043059826,0.02916461043059826,1e-04,0.8299999833106995,0.7826786041259766,0.7826786041259766
689,0.9800000190734863,0.07080104202032089,0.07080104202032089,1e-04,0.8299999833106995,0.7916644811630249,0.7916644811630249
690,1.0,0.006722912658005953,0.006722912658005953,1e-04,0.8299999833106995,0.801363468170166,0.801363468170166
691,0.9900000095367432,0.01842300221323967,0.01842300221323967,1e-04,0.8399999737739563,0.8144164085388184,0.8144164085388184
692,0.9900000095367432,0.017589610069990158,0.017589610069990158,1e-04,0.8299999833106995,0.8263584971427917,0.8263584971427917
693,0.9900000095367432,0.021838253363966942,0.021838253363966942,1e-04,0.8299999833106995,0.8343153595924377,0.8343153595924377
694,0.9900000095367432,0.018695687875151634,0.018695687875151634,1e-04,0.8399999737739563,0.8380120992660522,0.8380120992660522
695,0.9900000095367432,0.02502019889652729,0.02502019889652729,1e-04,0.8399999737739563,0.8382042646408081,0.8382042646408081
696,1.0,0.0054072849452495575,0.0054072849452495575,1e-04,0.8299999833106995,0.8368026614189148,0.8368026614189148
697,0.9800000190734863,0.05325034633278847,0.05325034633278847,1e-04,0.8399999737739563,0.8269121646881104,0.8269121646881104
698,0.9800000190734863,0.039363645017147064,0.039363645017147064,1e-04,0.8299999833106995,0.8167871236801147,0.8167871236801147
699,0.9700000286102295,0.04783053323626518,0.04783053323626518,1e-04,0.8299999833106995,0.8049442768096924,0.8049442768096924
700,0.9900000095367432,0.01884417049586773,0.01884417049586773,1e-04,0.8399999737739563,0.7977921962738037,0.7977921962738037
701,0.9800000190734863,0.04800458252429962,0.04800458252429962,1e-04,0.8399999737739563,0.7966747879981995,0.7966747879981995
702,0.9900000095367432,0.03678968548774719,0.03678968548774719,1e-04,0.8500000238418579,0.7994330525398254,0.7994330525398254
703,0.9399999976158142,0.09835019707679749,0.09835019707679749,1e-04,0.8399999737739563,0.8006381392478943,0.8006381392478943
704,0.9900000095367432,0.021712996065616608,0.021712996065616608,1e-04,0.8399999737739563,0.8042239546775818,0.8042239546775818
705,0.9700000286102295,0.10058356076478958,0.10058356076478958,1e-04,0.8299999833106995,0.8113292455673218,0.8113292455673218
706,1.0,0.011242538690567017,0.011242538690567017,1e-04,0.8299999833106995,0.8234105706214905,0.8234105706214905
707,0.9800000190734863,0.05636235326528549,0.05636235326528549,1e-04,0.8299999833106995,0.8353481888771057,0.8353481888771057
708,1.0,0.008653494529426098,0.008653494529426098,1e-04,0.8500000238418579,0.8490102291107178,0.8490102291107178
709,0.9900000095367432,0.013964713551104069,0.013964713551104069,1e-04,0.8500000238418579,0.8666494488716125,0.8666494488716125
710,0.9900000095367432,0.02864382043480873,0.02864382043480873,1e-04,0.8399999737739563,0.8791899681091309,0.8791899681091309
711,0.9900000095367432,0.05547022819519043,0.05547022819519043,1e-04,0.8399999737739563,0.8788947463035583,0.8788947463035583
712,0.9900000095367432,0.01791999861598015,0.01791999861598015,1e-04,0.8500000238418579,0.8731403946876526,0.8731403946876526
713,0.9800000190734863,0.060055993497371674,0.060055993497371674,1e-04,0.8500000238418579,0.8624489307403564,0.8624489307403564
714,0.9800000190734863,0.04601909592747688,0.04601909592747688,1e-04,0.8500000238418579,0.8517414927482605,0.8517414927482605
715,0.9900000095367432,0.04551977664232254,0.04551977664232254,1e-04,0.8399999737739563,0.8387117981910706,0.8387117981910706
716,0.9800000190734863,0.034056905657052994,0.034056905657052994,1e-04,0.8299999833106995,0.8271443247795105,0.8271443247795105
717,0.9900000095367432,0.020861219614744186,0.020861219614744186,1e-04,0.8299999833106995,0.8197532892227173,0.8197532892227173
718,0.9900000095367432,0.034225814044475555,0.034225814044475555,1e-04,0.8299999833106995,0.8143132925033569,0.8143132925033569
719,1.0,0.013404530473053455,0.013404530473053455,1e-04,0.8399999737739563,0.8108510375022888,0.8108510375022888
720,0.9800000190734863,0.02257734350860119,0.02257734350860119,1e-04,0.8500000238418579,0.808879017829895,0.808879017829895
721,0.9900000095367432,0.03130042925477028,0.03130042925477028,1e-04,0.8500000238418579,0.8095126152038574,0.8095126152038574
722,0.9700000286102295,0.0808485597372055,0.0808485597372055,1e-04,0.8500000238418579,0.8122220039367676,0.8122220039367676
723,0.9900000095367432,0.040603503584861755,0.040603503584861755,1e-04,0.8299999833106995,0.816036581993103,0.816036581993103
724,0.9700000286102295,0.05558255314826965,0.05558255314826965,1e-04,0.8299999833106995,0.8209647536277771,0.8209647536277771
725,1.0,0.011241098865866661,0.011241098865866661,1e-04,0.8299999833106995,0.8274728655815125,0.8274728655815125
726,0.9800000190734863,0.03496665135025978,0.03496665135025978,1e-04,0.8299999833106995,0.8341326713562012,0.8341326713562012
727,1.0,0.005080807954072952,0.005080807954072952,1e-04,0.8399999737739563,0.8405168056488037,0.8405168056488037
728,0.9900000095367432,0.03660214692354202,0.03660214692354202,1e-04,0.8500000238418579,0.8443018198013306,0.8443018198013306
729,0.9900000095367432,0.026962637901306152,0.026962637901306152,1e-04,0.8399999737739563,0.8426447510719299,0.8426447510719299
730,1.0,0.007653131615370512,0.007653131615370512,1e-04,0.8299999833106995,0.8421360850334167,0.8421360850334167
731,0.9900000095367432,0.021152308210730553,0.021152308210730553,1e-04,0.8299999833106995,0.8422191143035889,0.8422191143035889
732,1.0,0.017588075250387192,0.017588075250387192,1e-04,0.8399999737739563,0.8457287549972534,0.8457287549972534
733,1.0,0.017499392852187157,0.017499392852187157,1e-04,0.8399999737739563,0.8509342074394226,0.8509342074394226
734,0.9900000095367432,0.028338242322206497,0.028338242322206497,1e-04,0.8399999737739563,0.8544800281524658,0.8544800281524658
735,0.9800000190734863,0.060619402676820755,0.060619402676820755,1e-04,0.8299999833106995,0.8569663166999817,0.8569663166999817
736,0.9800000190734863,0.050387755036354065,0.050387755036354065,1e-04,0.8399999737739563,0.8509674072265625,0.8509674072265625
737,1.0,0.006899283733218908,0.006899283733218908,1e-04,0.8299999833106995,0.844938337802887,0.844938337802887
738,0.9900000095367432,0.01600174605846405,0.01600174605846405,1e-04,0.8299999833106995,0.8366987705230713,0.8366987705230713
739,0.9900000095367432,0.02396807260811329,0.02396807260811329,1e-04,0.8299999833106995,0.8321753144264221,0.8321753144264221
740,1.0,0.010819580405950546,0.010819580405950546,1e-04,0.8299999833106995,0.8280912637710571,0.8280912637710571
741,1.0,0.016185695305466652,0.016185695305466652,1e-04,0.8299999833106995,0.8253704905509949,0.8253704905509949
742,1.0,0.012535099871456623,0.012535099871456623,1e-04,0.8299999833106995,0.8213666677474976,0.8213666677474976
743,0.9900000095367432,0.04863497614860535,0.04863497614860535,1e-04,0.8299999833106995,0.8181257843971252,0.8181257843971252
744,0.9900000095367432,0.01847151666879654,0.01847151666879654,1e-04,0.8299999833106995,0.8165278434753418,0.8165278434753418
745,1.0,0.015311875380575657,0.015311875380575657,1e-04,0.8299999833106995,0.8174105882644653,0.8174105882644653
746,0.9900000095367432,0.030185401439666748,0.030185401439666748,1e-04,0.8299999833106995,0.8200854659080505,0.8200854659080505
747,1.0,0.01916344463825226,0.01916344463825226,1e-04,0.8299999833106995,0.8224182724952698,0.8224182724952698
748,1.0,0.01618821918964386,0.01618821918964386,1e-04,0.8299999833106995,0.8227313160896301,0.8227313160896301
749,0.9900000095367432,0.013612360693514347,0.013612360693514347,1e-04,0.8299999833106995,0.823840856552124,0.823840856552124
750,1.0,0.013138115406036377,0.013138115406036377,1e-04,0.8299999833106995,0.8275361061096191,0.8275361061096191
751,1.0,0.009091914631426334,0.009091914631426334,1e-04,0.8299999833106995,0.8320949673652649,0.8320949673652649
752,0.9900000095367432,0.03733782470226288,0.03733782470226288,1e-04,0.8299999833106995,0.8347322344779968,0.8347322344779968
753,0.9800000190734863,0.023338817059993744,0.023338817059993744,1e-04,0.8299999833106995,0.8328441381454468,0.8328441381454468
754,1.0,0.016925912350416183,0.016925912350416183,1e-04,0.8299999833106995,0.8281615972518921,0.8281615972518921
755,0.9900000095367432,0.07340355217456818,0.07340355217456818,1e-04,0.8299999833106995,0.8195654153823853,0.8195654153823853
756,1.0,0.005118175875395536,0.005118175875395536,1e-04,0.8299999833106995,0.8132914900779724,0.8132914900779724
757,0.9800000190734863,0.0294046550989151,0.0294046550989151,1e-04,0.8299999833106995,0.809247612953186,0.809247612953186
758,0.9800000190734863,0.047309983521699905,0.047309983521699905,1e-04,0.8299999833106995,0.8072201609611511,0.8072201609611511
759,1.0,0.0038306149654090405,0.0038306149654090405,1e-04,0.8299999833106995,0.805524468421936,0.805524468421936
760,0.9800000190734863,0.08530157059431076,0.08530157059431076,1e-04,0.8299999833106995,0.8041618466377258,0.8041618466377258
761,1.0,0.013815468177199364,0.013815468177199364,1e-04,0.8299999833106995,0.8044300675392151,0.8044300675392151
762,0.9900000095367432,0.0181149672716856,0.0181149672716856,1e-04,0.8299999833106995,0.8068693280220032,0.8068693280220032
763,0.9800000190734863,0.02828938327729702,0.02828938327729702,1e-04,0.8299999833106995,0.8089869022369385,0.8089869022369385
764,1.0,0.015291804447770119,0.015291804447770119,1e-04,0.8299999833106995,0.8117945790290833,0.8117945790290833
765,0.9900000095367432,0.021495869383215904,0.021495869383215904,1e-04,0.8299999833106995,0.8183141946792603,0.8183141946792603
766,0.9900000095367432,0.011349085718393326,0.011349085718393326,1e-04,0.8299999833106995,0.8235166668891907,0.8235166668891907
767,1.0,0.01561683788895607,0.01561683788895607,1e-04,0.8299999833106995,0.8273460865020752,0.8273460865020752
768,0.9900000095367432,0.035462476313114166,0.035462476313114166,1e-04,0.8299999833106995,0.8289926648139954,0.8289926648139954
769,0.9800000190734863,0.04729100316762924,0.04729100316762924,1e-04,0.8299999833106995,0.8263445496559143,0.8263445496559143
770,1.0,0.005242431536316872,0.005242431536316872,1e-04,0.8299999833106995,0.8243511915206909,0.8243511915206909
771,1.0,0.009890438057482243,0.009890438057482243,1e-04,0.8299999833106995,0.821810245513916,0.821810245513916
772,1.0,0.005510716233402491,0.005510716233402491,1e-04,0.8299999833106995,0.8201310038566589,0.8201310038566589
773,0.9800000190734863,0.05072229355573654,0.05072229355573654,1e-04,0.8299999833106995,0.8226593136787415,0.8226593136787415
774,0.9800000190734863,0.06151190400123596,0.06151190400123596,1e-04,0.8299999833106995,0.8261825442314148,0.8261825442314148
775,1.0,0.005753329489380121,0.005753329489380121,1e-04,0.8299999833106995,0.8293898105621338,0.8293898105621338
776,1.0,0.01657192036509514,0.01657192036509514,1e-04,0.8299999833106995,0.8287307620048523,0.8287307620048523
777,0.9800000190734863,0.042148832231760025,0.042148832231760025,1e-04,0.8299999833106995,0.8245388865470886,0.8245388865470886
778,0.9800000190734863,0.023616742342710495,0.023616742342710495,1e-04,0.8299999833106995,0.8243315815925598,0.8243315815925598
779,1.0,0.01484806276857853,0.01484806276857853,1e-04,0.8299999833106995,0.8226381540298462,0.8226381540298462
780,0.9800000190734863,0.03168363869190216,0.03168363869190216,1e-04,0.8299999833106995,0.8207173943519592,0.8207173943519592
781,1.0,0.00522906519472599,0.00522906519472599,1e-04,0.8299999833106995,0.8196828961372375,0.8196828961372375
782,0.9900000095367432,0.018817296251654625,0.018817296251654625,1e-04,0.8299999833106995,0.8168955445289612,0.8168955445289612
783,1.0,0.00450984388589859,0.00450984388589859,1e-04,0.8299999833106995,0.814694344997406,0.814694344997406
784,0.9800000190734863,0.025176942348480225,0.025176942348480225,1e-04,0.8299999833106995,0.8120675086975098,0.8120675086975098
785,0.9800000190734863,0.06361653655767441,0.06361653655767441,1e-04,0.8299999833106995,0.8090059161186218,0.8090059161186218
786,0.9599999785423279,0.0880979597568512,0.0880979597568512,1e-04,0.8299999833106995,0.8094757795333862,0.8094757795333862
787,0.9900000095367432,0.015071706846356392,0.015071706846356392,1e-04,0.8299999833106995,0.8111382126808167,0.8111382126808167
788,0.9800000190734863,0.029138963669538498,0.029138963669538498,1e-04,0.8299999833106995,0.8129387497901917,0.8129387497901917
789,1.0,0.014837140217423439,0.014837140217423439,1e-04,0.8299999833106995,0.8161394000053406,0.8161394000053406
790,1.0,0.004562413785606623,0.004562413785606623,1e-04,0.8199999928474426,0.8197586536407471,0.8197586536407471
791,1.0,0.0047924392856657505,0.0047924392856657505,1e-04,0.8199999928474426,0.8241427540779114,0.8241427540779114
792,0.9900000095367432,0.027431460097432137,0.027431460097432137,1e-04,0.8199999928474426,0.8257065415382385,0.8257065415382385
793,0.9900000095367432,0.030886210501194,0.030886210501194,1e-04,0.8199999928474426,0.8250325918197632,0.8250325918197632
794,1.0,0.013096068054437637,0.013096068054437637,1e-04,0.8199999928474426,0.8227874636650085,0.8227874636650085
795,0.9900000095367432,0.014871809631586075,0.014871809631586075,1e-04,0.8199999928474426,0.8168643712997437,0.8168643712997437
796,0.9700000286102295,0.04751530662178993,0.04751530662178993,1e-04,0.8199999928474426,0.8109263777732849,0.8109263777732849
797,1.0,0.008139590732753277,0.008139590732753277,1e-04,0.8199999928474426,0.8063796758651733,0.8063796758651733
798,1.0,0.007127455901354551,0.007127455901354551,1e-04,0.8199999928474426,0.8022344708442688,0.8022344708442688
799,0.9900000095367432,0.0150780463591218,0.0150780463591218,1e-04,0.8199999928474426,0.7992174625396729,0.7992174625396729
800,0.9700000286102295,0.04841382056474686,0.04841382056474686,1e-04,0.8299999833106995,0.794772207736969,0.794772207736969
801,0.9900000095367432,0.027992339804768562,0.027992339804768562,1e-04,0.8299999833106995,0.7922289371490479,0.7922289371490479
802,0.9900000095367432,0.035639163106679916,0.035639163106679916,1e-04,0.8299999833106995,0.7913038730621338,0.7913038730621338
803,1.0,0.005655066575855017,0.005655066575855017,1e-04,0.8299999833106995,0.7912976741790771,0.7912976741790771
804,1.0,0.006999392993748188,0.006999392993748188,1e-04,0.8299999833106995,0.7913891673088074,0.7913891673088074
805,0.9900000095367432,0.023385552689433098,0.023385552689433098,1e-04,0.8299999833106995,0.7884571552276611,0.7884571552276611
806,0.9900000095367432,0.028030384331941605,0.028030384331941605,1e-04,0.8299999833106995,0.7847709655761719,0.7847709655761719
807,0.9900000095367432,0.043336134403944016,0.043336134403944016,1e-04,0.8299999833106995,0.7853434085845947,0.7853434085845947
808,1.0,0.005404034163802862,0.005404034163802862,1e-04,0.8299999833106995,0.7864369750022888,0.7864369750022888
809,1.0,0.0048910160548985004,0.0048910160548985004,1e-04,0.8299999833106995,0.7874601483345032,0.7874601483345032
810,0.9900000095367432,0.027892597019672394,0.027892597019672394,1e-04,0.8399999737739563,0.788367748260498,0.788367748260498
811,0.9900000095367432,0.01637718267738819,0.01637718267738819,1e-04,0.8399999737739563,0.7912687659263611,0.7912687659263611
812,1.0,0.0116768479347229,0.0116768479347229,1e-04,0.8399999737739563,0.7949569821357727,0.7949569821357727
813,0.9900000095367432,0.021837057545781136,0.021837057545781136,1e-04,0.8399999737739563,0.7981767058372498,0.7981767058372498
814,1.0,0.030464734882116318,0.030464734882116318,1e-04,0.8399999737739563,0.8046724200248718,0.8046724200248718
815,1.0,0.014876199886202812,0.014876199886202812,1e-04,0.8399999737739563,0.8111326694488525,0.8111326694488525
816,0.9900000095367432,0.017312126234173775,0.017312126234173775,1e-04,0.8399999737739563,0.8199997544288635,0.8199997544288635
817,1.0,0.011366840451955795,0.011366840451955795,1e-04,0.8399999737739563,0.8296498656272888,0.8296498656272888
818,1.0,0.006283355411142111,0.006283355411142111,1e-04,0.8399999737739563,0.8401012420654297,0.8401012420654297
819,0.9800000190734863,0.02770010195672512,0.02770010195672512,1e-04,0.8399999737739563,0.8431748151779175,0.8431748151779175
820,1.0,0.005578507203608751,0.005578507203608751,1e-04,0.8399999737739563,0.8455568552017212,0.8455568552017212
821,0.9900000095367432,0.025630423799157143,0.025630423799157143,1e-04,0.8399999737739563,0.8456763625144958,0.8456763625144958
822,0.9599999785423279,0.08250964432954788,0.08250964432954788,1e-04,0.8399999737739563,0.8425167798995972,0.8425167798995972
823,0.9900000095367432,0.02270018868148327,0.02270018868148327,1e-04,0.8399999737739563,0.8394483327865601,0.8394483327865601
824,1.0,0.012816819362342358,0.012816819362342358,1e-04,0.8500000238418579,0.8364838361740112,0.8364838361740112
825,0.9900000095367432,0.023981519043445587,0.023981519043445587,1e-04,0.8500000238418579,0.8363903760910034,0.8363903760910034
826,1.0,0.009215024299919605,0.009215024299919605,1e-04,0.8500000238418579,0.8358207941055298,0.8358207941055298
827,1.0,0.011511335149407387,0.011511335149407387,1e-04,0.8500000238418579,0.8368209004402161,0.8368209004402161
828,0.9900000095367432,0.036423660814762115,0.036423660814762115,1e-04,0.8399999737739563,0.8402116894721985,0.8402116894721985
829,1.0,0.011191611178219318,0.011191611178219318,1e-04,0.8399999737739563,0.8437761664390564,0.8437761664390564
830,0.9800000190734863,0.03550948202610016,0.03550948202610016,1e-04,0.8399999737739563,0.8482409715652466,0.8482409715652466
831,0.9900000095367432,0.028606422245502472,0.028606422245502472,1e-04,0.8399999737739563,0.8544350266456604,0.8544350266456604
832,0.9900000095367432,0.013612738810479641,0.013612738810479641,1e-04,0.8399999737739563,0.8597633242607117,0.8597633242607117
833,1.0,0.0045904782600700855,0.0045904782600700855,1e-04,0.8399999737739563,0.8656152486801147,0.8656152486801147
834,0.9900000095367432,0.02258959226310253,0.02258959226310253,1e-04,0.8399999737739563,0.8678987622261047,0.8678987622261047
835,0.9900000095367432,0.020366983488202095,0.020366983488202095,1e-04,0.8399999737739563,0.8656002283096313,0.8656002283096313
836,0.9900000095367432,0.02226107567548752,0.02226107567548752,1e-04,0.8399999737739563,0.8668349385261536,0.8668349385261536
837,0.9800000190734863,0.03455600142478943,0.03455600142478943,1e-04,0.8399999737739563,0.8623799085617065,0.8623799085617065
838,1.0,0.014896413311362267,0.014896413311362267,1e-04,0.8399999737739563,0.8561356067657471,0.8561356067657471
839,1.0,0.010479927062988281,0.010479927062988281,1e-04,0.8399999737739563,0.850939154624939,0.850939154624939
840,0.9900000095367432,0.019448719918727875,0.019448719918727875,1e-04,0.8399999737739563,0.8477781414985657,0.8477781414985657
841,0.9900000095367432,0.03899345546960831,0.03899345546960831,1e-04,0.8399999737739563,0.8473500609397888,0.8473500609397888
842,0.9800000190734863,0.045492853969335556,0.045492853969335556,1e-04,0.8299999833106995,0.8427992463111877,0.8427992463111877
843,0.9800000190734863,0.04848596453666687,0.04848596453666687,1e-04,0.8299999833106995,0.8342627882957458,0.8342627882957458
844,0.9900000095367432,0.01591074839234352,0.01591074839234352,1e-04,0.8399999737739563,0.8294241428375244,0.8294241428375244
845,0.9900000095367432,0.02273617312312126,0.02273617312312126,1e-04,0.8399999737739563,0.8256582617759705,0.8256582617759705
846,0.9900000095367432,0.04919811338186264,0.04919811338186264,1e-04,0.8399999737739563,0.8217013478279114,0.8217013478279114
847,0.9800000190734863,0.05892277881503105,0.05892277881503105,1e-04,0.8399999737739563,0.8182147145271301,0.8182147145271301
848,0.9700000286102295,0.0638391450047493,0.0638391450047493,1e-04,0.8399999737739563,0.8173460364341736,0.8173460364341736
849,1.0,0.0035027971025556326,0.0035027971025556326,1e-04,0.8299999833106995,0.8187502026557922,0.8187502026557922
850,0.9900000095367432,0.041029397398233414,0.041029397398233414,1e-04,0.8299999833106995,0.8270443081855774,0.8270443081855774
851,1.0,0.01689647138118744,0.01689647138118744,1e-04,0.8199999928474426,0.8359431624412537,0.8359431624412537
852,0.9900000095367432,0.026081090793013573,0.026081090793013573,1e-04,0.8299999833106995,0.8508154153823853,0.8508154153823853
853,1.0,0.009466282092034817,0.009466282092034817,1e-04,0.8299999833106995,0.8673087358474731,0.8673087358474731
854,0.9800000190734863,0.028382882475852966,0.028382882475852966,1e-04,0.8399999737739563,0.8786547183990479,0.8786547183990479
855,1.0,0.005922784097492695,0.005922784097492695,1e-04,0.8500000238418579,0.8875479698181152,0.8875479698181152
856,0.9900000095367432,0.01954895816743374,0.01954895816743374,1e-04,0.8500000238418579,0.8897721767425537,0.8897721767425537
857,0.9800000190734863,0.032440025359392166,0.032440025359392166,1e-04,0.8399999737739563,0.8826435208320618,0.8826435208320618
858,0.9900000095367432,0.04454050958156586,0.04454050958156586,1e-04,0.8299999833106995,0.8674423694610596,0.8674423694610596
859,0.9800000190734863,0.04663783684372902,0.04663783684372902,1e-04,0.8299999833106995,0.8532463312149048,0.8532463312149048
860,1.0,0.01152404397726059,0.01152404397726059,1e-04,0.8199999928474426,0.8410131931304932,0.8410131931304932
861,1.0,0.016798101365566254,0.016798101365566254,1e-04,0.8299999833106995,0.8312638998031616,0.8312638998031616
862,1.0,0.012760765850543976,0.012760765850543976,1e-04,0.8299999833106995,0.8240658044815063,0.8240658044815063
863,1.0,0.012003299780189991,0.012003299780189991,1e-04,0.8299999833106995,0.8202362060546875,0.8202362060546875
864,1.0,0.019318826496601105,0.019318826496601105,1e-04,0.8299999833106995,0.8199093341827393,0.8199093341827393
865,1.0,0.009424629621207714,0.009424629621207714,1e-04,0.8399999737739563,0.8205476403236389,0.8205476403236389
866,1.0,0.026966838166117668,0.026966838166117668,1e-04,0.8399999737739563,0.8211343288421631,0.8211343288421631
867,1.0,0.005308868829160929,0.005308868829160929,1e-04,0.8600000143051147,0.8218165040016174,0.8218165040016174
868,1.0,0.012262226082384586,0.012262226082384586,1e-04,0.8399999737739563,0.8234914541244507,0.8234914541244507
869,0.9900000095367432,0.03557765111327171,0.03557765111327171,1e-04,0.8399999737739563,0.8255436420440674,0.8255436420440674
870,0.9900000095367432,0.017421916127204895,0.017421916127204895,1e-04,0.8299999833106995,0.8268985748291016,0.8268985748291016
871,0.9900000095367432,0.029217539355158806,0.029217539355158806,1e-04,0.8299999833106995,0.8271492719650269,0.8271492719650269
872,0.9900000095367432,0.013195177540183067,0.013195177540183067,1e-04,0.8299999833106995,0.8289549946784973,0.8289549946784973
873,1.0,0.00605793995782733,0.00605793995782733,1e-04,0.8299999833106995,0.8319879174232483,0.8319879174232483
874,1.0,0.013324309140443802,0.013324309140443802,1e-04,0.8399999737739563,0.8363072276115417,0.8363072276115417
875,0.9900000095367432,0.02103104069828987,0.02103104069828987,1e-04,0.8399999737739563,0.8394849300384521,0.8394849300384521
876,1.0,0.007821550592780113,0.007821550592780113,1e-04,0.8399999737739563,0.8427944779396057,0.8427944779396057
877,1.0,0.012284466996788979,0.012284466996788979,1e-04,0.8299999833106995,0.8446600437164307,0.8446600437164307
878,0.9900000095367432,0.020785154774785042,0.020785154774785042,1e-04,0.8299999833106995,0.8454270958900452,0.8454270958900452
879,1.0,0.008879530243575573,0.008879530243575573,1e-04,0.8299999833106995,0.8449701070785522,0.8449701070785522
880,0.9700000286102295,0.04955163598060608,0.04955163598060608,1e-04,0.8299999833106995,0.8491166830062866,0.8491166830062866
881,1.0,0.005111992359161377,0.005111992359161377,1e-04,0.8299999833106995,0.8525823950767517,0.8525823950767517
882,0.9900000095367432,0.01966286636888981,0.01966286636888981,1e-04,0.8299999833106995,0.8531752824783325,0.8531752824783325
883,0.9900000095367432,0.01741633750498295,0.01741633750498295,1e-04,0.8299999833106995,0.8514655232429504,0.8514655232429504
884,1.0,0.010991496965289116,0.010991496965289116,1e-04,0.8399999737739563,0.8490298390388489,0.8490298390388489
885,1.0,0.003983284346759319,0.003983284346759319,1e-04,0.8399999737739563,0.8468936681747437,0.8468936681747437
886,0.9900000095367432,0.03394877910614014,0.03394877910614014,1e-04,0.8399999737739563,0.843167245388031,0.843167245388031
887,1.0,0.012790344655513763,0.012790344655513763,1e-04,0.8299999833106995,0.8406322002410889,0.8406322002410889
888,1.0,0.00895142275840044,0.00895142275840044,1e-04,0.8299999833106995,0.8404476642608643,0.8404476642608643
889,1.0,0.011641306802630424,0.011641306802630424,1e-04,0.8299999833106995,0.8394222855567932,0.8394222855567932
890,0.9900000095367432,0.020364679396152496,0.020364679396152496,1e-04,0.8399999737739563,0.8375647664070129,0.8375647664070129
891,0.9700000286102295,0.04493158310651779,0.04493158310651779,1e-04,0.8399999737739563,0.834919810295105,0.834919810295105
892,0.9800000190734863,0.038942113518714905,0.038942113518714905,1e-04,0.8399999737739563,0.8355980515480042,0.8355980515480042
893,0.9900000095367432,0.018420737236738205,0.018420737236738205,1e-04,0.8399999737739563,0.8370919823646545,0.8370919823646545
894,0.9800000190734863,0.04996592178940773,0.04996592178940773,1e-04,0.8399999737739563,0.8390518426895142,0.8390518426895142
895,0.949999988079071,0.06555232405662537,0.06555232405662537,1e-04,0.8299999833106995,0.851125955581665,0.851125955581665
896,0.9599999785423279,0.07998746633529663,0.07998746633529663,1e-04,0.8399999737739563,0.8620317578315735,0.8620317578315735
897,1.0,0.00673922523856163,0.00673922523856163,1e-04,0.8399999737739563,0.8721855282783508,0.8721855282783508
898,0.9900000095367432,0.021096039563417435,0.021096039563417435,1e-04,0.8399999737739563,0.8851110935211182,0.8851110935211182
899,0.9900000095367432,0.02592899277806282,0.02592899277806282,1e-04,0.8399999737739563,0.9007334113121033,0.9007334113121033
900,0.9900000095367432,0.024267254397273064,0.024267254397273064,1e-04,0.8299999833106995,0.9114984273910522,0.9114984273910522
901,0.9900000095367432,0.021855667233467102,0.021855667233467102,1e-04,0.8299999833106995,0.9139217138290405,0.9139217138290405
902,0.9900000095367432,0.02418522536754608,0.02418522536754608,1e-04,0.8299999833106995,0.9087042212486267,0.9087042212486267
903,0.9900000095367432,0.019054636359214783,0.019054636359214783,1e-04,0.8299999833106995,0.9079366326332092,0.9079366326332092
904,0.9800000190734863,0.07334409654140472,0.07334409654140472,1e-04,0.8399999737739563,0.8961348533630371,0.8961348533630371
905,1.0,0.006456567440181971,0.006456567440181971,1e-04,0.8299999833106995,0.8858942985534668,0.8858942985534668
906,0.9900000095367432,0.03081352263689041,0.03081352263689041,1e-04,0.8299999833106995,0.8763055205345154,0.8763055205345154
907,1.0,0.011339493095874786,0.011339493095874786,1e-04,0.8299999833106995,0.8677240014076233,0.8677240014076233
908,0.9800000190734863,0.029174141585826874,0.029174141585826874,1e-04,0.8299999833106995,0.8602912425994873,0.8602912425994873
909,0.9900000095367432,0.036092787981033325,0.036092787981033325,1e-04,0.8299999833106995,0.8544644713401794,0.8544644713401794
910,1.0,0.0061423503793776035,0.0061423503793776035,1e-04,0.8299999833106995,0.8502853512763977,0.8502853512763977
911,0.9700000286102295,0.036506786942481995,0.036506786942481995,1e-04,0.8299999833106995,0.8470984101295471,0.8470984101295471
912,0.9800000190734863,0.029569778591394424,0.029569778591394424,1e-04,0.8299999833106995,0.8449047803878784,0.8449047803878784
913,0.9900000095367432,0.018428850919008255,0.018428850919008255,1e-04,0.8299999833106995,0.8436722755432129,0.8436722755432129
914,0.9900000095367432,0.020299261435866356,0.020299261435866356,1e-04,0.8299999833106995,0.8431205153465271,0.8431205153465271
915,0.9900000095367432,0.025812411680817604,0.025812411680817604,1e-04,0.8299999833106995,0.8415216207504272,0.8415216207504272
916,1.0,0.008638916537165642,0.008638916537165642,1e-04,0.8299999833106995,0.8405197858810425,0.8405197858810425
917,1.0,0.011192712932825089,0.011192712932825089,1e-04,0.8299999833106995,0.8406884074211121,0.8406884074211121
918,0.9800000190734863,0.06208227202296257,0.06208227202296257,1e-04,0.8299999833106995,0.8439576625823975,0.8439576625823975
919,1.0,0.010338835418224335,0.010338835418224335,1e-04,0.8299999833106995,0.8502482771873474,0.8502482771873474
920,1.0,0.009760518558323383,0.009760518558323383,1e-04,0.8299999833106995,0.8567430973052979,0.8567430973052979
921,0.9900000095367432,0.01819590851664543,0.01819590851664543,1e-04,0.8299999833106995,0.8608306646347046,0.8608306646347046
922,0.9800000190734863,0.03236571326851845,0.03236571326851845,1e-04,0.8299999833106995,0.8613630533218384,0.8613630533218384
923,0.9900000095367432,0.01866305060684681,0.01866305060684681,1e-04,0.8299999833106995,0.8658406734466553,0.8658406734466553
924,1.0,0.011330350302159786,0.011330350302159786,1e-04,0.8299999833106995,0.8714640736579895,0.8714640736579895
925,0.9800000190734863,0.05097346752882004,0.05097346752882004,1e-04,0.8299999833106995,0.8682712316513062,0.8682712316513062
926,0.9900000095367432,0.019916638731956482,0.019916638731956482,1e-04,0.8299999833106995,0.8667572736740112,0.8667572736740112
927,1.0,0.005053692497313023,0.005053692497313023,1e-04,0.8299999833106995,0.8663325309753418,0.8663325309753418
928,0.9900000095367432,0.018285654485225677,0.018285654485225677,1e-04,0.8299999833106995,0.8634807467460632,0.8634807467460632
929,1.0,0.009780005551874638,0.009780005551874638,1e-04,0.8299999833106995,0.8614801168441772,0.8614801168441772
930,0.9800000190734863,0.03810388967394829,0.03810388967394829,1e-04,0.8299999833106995,0.8524764776229858,0.8524764776229858
931,1.0,0.009553509764373302,0.009553509764373302,1e-04,0.8299999833106995,0.8465713262557983,0.8465713262557983
932,1.0,0.006323354318737984,0.006323354318737984,1e-04,0.8299999833106995,0.841845691204071,0.841845691204071
933,0.9800000190734863,0.04614735767245293,0.04614735767245293,1e-04,0.8299999833106995,0.8343772292137146,0.8343772292137146
934,0.9900000095367432,0.01617588847875595,0.01617588847875595,1e-04,0.8299999833106995,0.8278616070747375,0.8278616070747375
935,1.0,0.007381505332887173,0.007381505332887173,1e-04,0.8299999833106995,0.8253072500228882,0.8253072500228882
936,1.0,0.0075772046111524105,0.0075772046111524105,1e-04,0.8399999737739563,0.8249704837799072,0.8249704837799072
937,0.9800000190734863,0.02715901844203472,0.02715901844203472,1e-04,0.8399999737739563,0.8273254632949829,0.8273254632949829
938,0.9900000095367432,0.033102985471487045,0.033102985471487045,1e-04,0.8500000238418579,0.8295271992683411,0.8295271992683411
939,1.0,0.010528095997869968,0.010528095997869968,1e-04,0.8500000238418579,0.8322353959083557,0.8322353959083557
940,0.9900000095367432,0.015278050675988197,0.015278050675988197,1e-04,0.8500000238418579,0.8348976969718933,0.8348976969718933
941,0.9800000190734863,0.0440865084528923,0.0440865084528923,1e-04,0.8299999833106995,0.8372578620910645,0.8372578620910645
942,1.0,0.005253078415989876,0.005253078415989876,1e-04,0.8299999833106995,0.8406028747558594,0.8406028747558594
943,1.0,0.016699032858014107,0.016699032858014107,1e-04,0.8299999833106995,0.8465893268585205,0.8465893268585205
944,0.9900000095367432,0.014280987903475761,0.014280987903475761,1e-04,0.8299999833106995,0.8546839356422424,0.8546839356422424
945,1.0,0.007306541316211224,0.007306541316211224,1e-04,0.8299999833106995,0.8637421131134033,0.8637421131134033
946,1.0,0.01335228607058525,0.01335228607058525,1e-04,0.8299999833106995,0.8732607960700989,0.8732607960700989
947,1.0,0.01142127625644207,0.01142127625644207,1e-04,0.8299999833106995,0.8814857602119446,0.8814857602119446
948,1.0,0.002968266373500228,0.002968266373500228,1e-04,0.8299999833106995,0.8901187777519226,0.8901187777519226
949,0.9900000095367432,0.029975993558764458,0.029975993558764458,1e-04,0.8399999737739563,0.8969742059707642,0.8969742059707642
950,0.9900000095367432,0.026588819921016693,0.026588819921016693,1e-04,0.8399999737739563,0.9025823473930359,0.9025823473930359
951,0.9900000095367432,0.023515088483691216,0.023515088483691216,1e-04,0.8399999737739563,0.9125303626060486,0.9125303626060486
952,0.9800000190734863,0.020982520654797554,0.020982520654797554,1e-04,0.8399999737739563,0.9204756021499634,0.9204756021499634
953,0.9800000190734863,0.04096775874495506,0.04096775874495506,1e-04,0.8399999737739563,0.9242177605628967,0.9242177605628967
954,0.9900000095367432,0.03780221939086914,0.03780221939086914,1e-04,0.8399999737739563,0.9143435955047607,0.9143435955047607
955,0.9900000095367432,0.045825883746147156,0.045825883746147156,1e-04,0.8399999737739563,0.9018459916114807,0.9018459916114807
956,0.9900000095367432,0.053143274039030075,0.053143274039030075,1e-04,0.8399999737739563,0.8861185312271118,0.8861185312271118
957,0.9800000190734863,0.051838718354701996,0.051838718354701996,1e-04,0.8299999833106995,0.8714670538902283,0.8714670538902283
958,1.0,0.002548407530412078,0.002548407530412078,1e-04,0.8399999737739563,0.8630955219268799,0.8630955219268799
959,0.9700000286102295,0.05519121512770653,0.05519121512770653,1e-04,0.8500000238418579,0.8584258556365967,0.8584258556365967
960,1.0,0.007145460695028305,0.007145460695028305,1e-04,0.8600000143051147,0.8552058339118958,0.8552058339118958
961,0.9800000190734863,0.0376291424036026,0.0376291424036026,1e-04,0.8600000143051147,0.8540033102035522,0.8540033102035522
962,0.9900000095367432,0.02584957890212536,0.02584957890212536,1e-04,0.8600000143051147,0.8535798788070679,0.8535798788070679
963,1.0,0.009900305420160294,0.009900305420160294,1e-04,0.8600000143051147,0.8529499173164368,0.8529499173164368
964,0.9900000095367432,0.010682596825063229,0.010682596825063229,1e-04,0.8399999737739563,0.8528848886489868,0.8528848886489868
965,1.0,0.008809632621705532,0.008809632621705532,1e-04,0.8399999737739563,0.8544778227806091,0.8544778227806091
966,1.0,0.008944760076701641,0.008944760076701641,1e-04,0.8399999737739563,0.8570345044136047,0.8570345044136047
967,1.0,0.008504949510097504,0.008504949510097504,1e-04,0.8299999833106995,0.8622322082519531,0.8622322082519531
968,0.9800000190734863,0.03722058981657028,0.03722058981657028,1e-04,0.8299999833106995,0.873537540435791,0.873537540435791
969,1.0,0.0029692337848246098,0.0029692337848246098,1e-04,0.8399999737739563,0.8862422108650208,0.8862422108650208
970,1.0,0.005160087253898382,0.005160087253898382,1e-04,0.8399999737739563,0.8985151052474976,0.8985151052474976
971,0.9800000190734863,0.040206387639045715,0.040206387639045715,1e-04,0.8299999833106995,0.9035268425941467,0.9035268425941467
972,1.0,0.007148968521505594,0.007148968521505594,1e-04,0.8299999833106995,0.9060111045837402,0.9060111045837402
973,0.9900000095367432,0.020037174224853516,0.020037174224853516,1e-04,0.8299999833106995,0.9029998779296875,0.9029998779296875
974,0.9800000190734863,0.06079084426164627,0.06079084426164627,1e-04,0.8299999833106995,0.9050502777099609,0.9050502777099609
975,0.9900000095367432,0.025038888677954674,0.025038888677954674,1e-04,0.8299999833106995,0.9012660980224609,0.9012660980224609
976,0.9900000095367432,0.02853095345199108,0.02853095345199108,1e-04,0.8299999833106995,0.8998844027519226,0.8998844027519226
