epoch,accuracy,categorical_crossentropy,loss,lr,val_accuracy,val_categorical_crossentropy,val_loss
0,0.4000000059604645,0.705912172794342,0.705912172794342,0.001,0.6399999856948853,0.6471399664878845,0.6471399664878845
1,0.6899999976158142,0.6076552867889404,0.6076552867889404,0.001,0.6399999856948853,0.5956218838691711,0.5956218838691711
2,0.6899999976158142,0.5645712018013,0.5645712018013,0.001,0.6299999952316284,0.5523613691329956,0.5523613691329956
3,0.699999988079071,0.5070115923881531,0.5070115923881531,0.001,0.75,0.5193653702735901,0.5193653702735901
4,0.7599999904632568,0.4764042794704437,0.4764042794704437,0.001,0.75,0.4826849102973938,0.4826849102973938
5,0.8299999833106995,0.42430850863456726,0.42430850863456726,0.001,0.7300000190734863,0.4609951078891754,0.4609951078891754
6,0.7900000214576721,0.3813972771167755,0.3813972771167755,0.001,0.7400000095367432,0.47041085362434387,0.47041085362434387
7,0.7799999713897705,0.38221704959869385,0.38221704959869385,0.001,0.7300000190734863,0.4950804114341736,0.4950804114341736
8,0.800000011920929,0.3553702235221863,0.3553702235221863,0.001,0.7300000190734863,0.5094549059867859,0.5094549059867859
9,0.8299999833106995,0.3610939681529999,0.3610939681529999,0.001,0.7400000095367432,0.5035497546195984,0.5035497546195984
10,0.8299999833106995,0.35168102383613586,0.35168102383613586,0.001,0.75,0.48427700996398926,0.48427700996398926
11,0.8399999737739563,0.2990742027759552,0.2990742027759552,0.001,0.7699999809265137,0.4631061553955078,0.4631061553955078
12,0.8500000238418579,0.3272415101528168,0.3272415101528168,0.001,0.7900000214576721,0.440397709608078,0.440397709608078
13,0.8500000238418579,0.3066461980342865,0.3066461980342865,0.001,0.8100000023841858,0.4200713634490967,0.4200713634490967
14,0.8700000047683716,0.29160937666893005,0.29160937666893005,0.001,0.8100000023841858,0.4042769968509674,0.4042769968509674
15,0.8700000047683716,0.25616803765296936,0.25616803765296936,0.001,0.800000011920929,0.3967840075492859,0.3967840075492859
16,0.8500000238418579,0.2758209705352783,0.2758209705352783,0.001,0.8100000023841858,0.39143696427345276,0.39143696427345276
17,0.8700000047683716,0.28093230724334717,0.28093230724334717,0.001,0.8399999737739563,0.3869149386882782,0.3869149386882782
18,0.8899999856948853,0.2506652772426605,0.2506652772426605,0.001,0.8399999737739563,0.39155909419059753,0.39155909419059753
19,0.9100000262260437,0.21151424944400787,0.21151424944400787,0.001,0.8500000238418579,0.40047770738601685,0.40047770738601685
20,0.8700000047683716,0.2498576045036316,0.2498576045036316,0.001,0.8700000047683716,0.4097224771976471,0.4097224771976471
21,0.9100000262260437,0.2284420132637024,0.2284420132637024,0.001,0.8799999952316284,0.4237748682498932,0.4237748682498932
22,0.8899999856948853,0.18696528673171997,0.18696528673171997,0.001,0.8700000047683716,0.4321058392524719,0.4321058392524719
23,0.8999999761581421,0.21660803258419037,0.21660803258419037,0.001,0.8600000143051147,0.436043918132782,0.436043918132782
24,0.9300000071525574,0.19183926284313202,0.19183926284313202,0.001,0.8500000238418579,0.4321221113204956,0.4321221113204956
25,0.8999999761581421,0.2429475337266922,0.2429475337266922,0.001,0.8299999833106995,0.4284721314907074,0.4284721314907074
26,0.8999999761581421,0.19226215779781342,0.19226215779781342,0.001,0.8299999833106995,0.4273083209991455,0.4273083209991455
27,0.8899999856948853,0.20270559191703796,0.20270559191703796,0.001,0.8399999737739563,0.4285568296909332,0.4285568296909332
28,0.9300000071525574,0.18933917582035065,0.18933917582035065,0.001,0.8399999737739563,0.4285247027873993,0.4285247027873993
29,0.9100000262260437,0.17508567869663239,0.17508567869663239,0.001,0.8500000238418579,0.4245833456516266,0.4245833456516266
30,0.9100000262260437,0.14546853303909302,0.14546853303909302,0.001,0.8600000143051147,0.42729541659355164,0.42729541659355164
31,0.9399999976158142,0.1483561396598816,0.1483561396598816,0.001,0.8399999737739563,0.42668968439102173,0.42668968439102173
32,0.9399999976158142,0.1347251832485199,0.1347251832485199,0.001,0.8700000047683716,0.4407825767993927,0.4407825767993927
33,0.9599999785423279,0.14916902780532837,0.14916902780532837,0.001,0.8600000143051147,0.4475444555282593,0.4475444555282593
34,0.9399999976158142,0.11572590470314026,0.11572590470314026,0.001,0.8700000047683716,0.4391360580921173,0.4391360580921173
35,0.9599999785423279,0.09644382447004318,0.09644382447004318,0.001,0.8700000047683716,0.4373902976512909,0.4373902976512909
36,0.9300000071525574,0.15228861570358276,0.15228861570358276,0.001,0.8700000047683716,0.4298982620239258,0.4298982620239258
37,0.9700000286102295,0.1070471778512001,0.1070471778512001,0.001,0.8600000143051147,0.417801171541214,0.417801171541214
38,0.9399999976158142,0.1667918711900711,0.1667918711900711,0.001,0.8600000143051147,0.4170973598957062,0.4170973598957062
39,0.949999988079071,0.12692955136299133,0.12692955136299133,0.001,0.8600000143051147,0.4225310981273651,0.4225310981273651
40,0.949999988079071,0.11403615027666092,0.11403615027666092,0.001,0.8600000143051147,0.4339692294597626,0.4339692294597626
41,0.9399999976158142,0.14020046591758728,0.14020046591758728,0.001,0.8700000047683716,0.4438256025314331,0.4438256025314331
42,0.9700000286102295,0.09470190107822418,0.09470190107822418,0.001,0.8500000238418579,0.4764496982097626,0.4764496982097626
43,0.949999988079071,0.09883644431829453,0.09883644431829453,0.001,0.8600000143051147,0.4744971990585327,0.4744971990585327
44,0.9300000071525574,0.16609066724777222,0.16609066724777222,0.001,0.8799999952316284,0.48574668169021606,0.48574668169021606
45,0.9399999976158142,0.12237778306007385,0.12237778306007385,0.001,0.8600000143051147,0.4473452866077423,0.4473452866077423
46,0.9599999785423279,0.1075109988451004,0.1075109988451004,0.001,0.8399999737739563,0.4479314386844635,0.4479314386844635
47,0.9800000190734863,0.08628705143928528,0.08628705143928528,0.001,0.8600000143051147,0.42737147212028503,0.42737147212028503
48,0.9800000190734863,0.052162379026412964,0.052162379026412964,0.001,0.8799999952316284,0.41687852144241333,0.41687852144241333
49,0.9300000071525574,0.17649053037166595,0.17649053037166595,0.001,0.8799999952316284,0.4085996150970459,0.4085996150970459
50,0.9599999785423279,0.10366470366716385,0.10366470366716385,0.001,0.8899999856948853,0.41399115324020386,0.41399115324020386
51,0.9700000286102295,0.09599491953849792,0.09599491953849792,0.001,0.8899999856948853,0.4267890453338623,0.4267890453338623
52,0.949999988079071,0.08947625756263733,0.08947625756263733,0.001,0.8999999761581421,0.3869747817516327,0.3869747817516327
53,0.9700000286102295,0.09107460826635361,0.09107460826635361,0.001,0.8899999856948853,0.38312840461730957,0.38312840461730957
54,0.9800000190734863,0.08012054115533829,0.08012054115533829,0.001,0.9100000262260437,0.38643336296081543,0.38643336296081543
55,0.9700000286102295,0.06500633805990219,0.06500633805990219,0.001,0.9100000262260437,0.39688998460769653,0.39688998460769653
56,0.9800000190734863,0.06564885377883911,0.06564885377883911,0.001,0.8700000047683716,0.4443003833293915,0.4443003833293915
57,0.9399999976158142,0.11765429377555847,0.11765429377555847,0.001,0.8999999761581421,0.44774219393730164,0.44774219393730164
58,0.9800000190734863,0.057542357593774796,0.057542357593774796,0.001,0.8999999761581421,0.47195202112197876,0.47195202112197876
59,0.9700000286102295,0.07197137176990509,0.07197137176990509,0.001,0.8999999761581421,0.4965376555919647,0.4965376555919647
60,0.9700000286102295,0.08533859997987747,0.08533859997987747,0.001,0.8899999856948853,0.5065605640411377,0.5065605640411377
61,0.949999988079071,0.09988165646791458,0.09988165646791458,0.001,0.8999999761581421,0.5176249146461487,0.5176249146461487
62,0.9399999976158142,0.14456890523433685,0.14456890523433685,0.001,0.8600000143051147,0.5498451590538025,0.5498451590538025
63,0.9700000286102295,0.12228338420391083,0.12228338420391083,0.001,0.8600000143051147,0.5554952025413513,0.5554952025413513
64,0.9700000286102295,0.057501450181007385,0.057501450181007385,0.001,0.8600000143051147,0.5646989345550537,0.5646989345550537
65,0.9399999976158142,0.11553337424993515,0.11553337424993515,0.001,0.8500000238418579,0.6750862002372742,0.6750862002372742
66,0.9300000071525574,0.15199631452560425,0.15199631452560425,0.001,0.8399999737739563,0.5813024640083313,0.5813024640083313
67,0.9200000166893005,0.149541974067688,0.149541974067688,0.001,0.8399999737739563,0.6514194011688232,0.6514194011688232
68,0.9800000190734863,0.07310964912176132,0.07310964912176132,0.001,0.8100000023841858,0.7405669689178467,0.7405669689178467
69,0.8999999761581421,0.21278803050518036,0.21278803050518036,0.001,0.8700000047683716,0.5458407402038574,0.5458407402038574
70,0.9700000286102295,0.04574545472860336,0.04574545472860336,0.001,0.8600000143051147,0.5530068874359131,0.5530068874359131
71,0.949999988079071,0.12694783508777618,0.12694783508777618,0.001,0.8799999952316284,0.5076990127563477,0.5076990127563477
72,0.9800000190734863,0.05510310083627701,0.05510310083627701,0.001,0.8700000047683716,0.511953592300415,0.511953592300415
73,0.9399999976158142,0.10170973837375641,0.10170973837375641,0.001,0.8500000238418579,0.5609381198883057,0.5609381198883057
74,0.9700000286102295,0.0386422760784626,0.0386422760784626,0.001,0.8500000238418579,0.5777093768119812,0.5777093768119812
75,0.9599999785423279,0.07599698752164841,0.07599698752164841,0.001,0.8500000238418579,0.49741050601005554,0.49741050601005554
76,0.949999988079071,0.1151137426495552,0.1151137426495552,0.001,0.8799999952316284,0.5073890089988708,0.5073890089988708
77,0.949999988079071,0.12074728310108185,0.12074728310108185,0.001,0.8799999952316284,0.4998237192630768,0.4998237192630768
78,0.949999988079071,0.11169015616178513,0.11169015616178513,0.001,0.8600000143051147,0.4827817976474762,0.4827817976474762
79,1.0,0.0382603295147419,0.0382603295147419,0.001,0.8500000238418579,0.5562263131141663,0.5562263131141663
80,0.949999988079071,0.13677237927913666,0.13677237927913666,0.001,0.8399999737739563,0.5417407155036926,0.5417407155036926
81,0.9900000095367432,0.03998840972781181,0.03998840972781181,0.001,0.8600000143051147,0.5013983249664307,0.5013983249664307
82,0.9599999785423279,0.08246354758739471,0.08246354758739471,0.001,0.8799999952316284,0.49436110258102417,0.49436110258102417
83,0.949999988079071,0.09086516499519348,0.09086516499519348,0.001,0.8899999856948853,0.5095741152763367,0.5095741152763367
84,0.9599999785423279,0.05640258640050888,0.05640258640050888,0.001,0.8500000238418579,0.49614229798316956,0.49614229798316956
85,0.9900000095367432,0.03873893618583679,0.03873893618583679,0.001,0.8600000143051147,0.4995039403438568,0.4995039403438568
86,0.9900000095367432,0.04056620970368385,0.04056620970368385,0.001,0.8500000238418579,0.5181686282157898,0.5181686282157898
87,0.949999988079071,0.14423570036888123,0.14423570036888123,0.001,0.8500000238418579,0.5126127004623413,0.5126127004623413
88,0.9599999785423279,0.06617087125778198,0.06617087125778198,0.001,0.8600000143051147,0.4985061287879944,0.4985061287879944
89,0.9800000190734863,0.053171202540397644,0.053171202540397644,0.001,0.8600000143051147,0.5107784867286682,0.5107784867286682
90,0.9800000190734863,0.0971980020403862,0.0971980020403862,0.001,0.8700000047683716,0.5682955980300903,0.5682955980300903
91,0.9599999785423279,0.10076543688774109,0.10076543688774109,0.001,0.8600000143051147,0.5441334843635559,0.5441334843635559
92,0.9599999785423279,0.07492594420909882,0.07492594420909882,0.001,0.8600000143051147,0.5451914668083191,0.5451914668083191
93,0.9599999785423279,0.07838109135627747,0.07838109135627747,0.001,0.8299999833106995,0.5970767140388489,0.5970767140388489
94,0.9700000286102295,0.07890520989894867,0.07890520989894867,0.001,0.8199999928474426,0.6413966417312622,0.6413966417312622
95,0.9599999785423279,0.10087934136390686,0.10087934136390686,0.001,0.8500000238418579,0.5829262137413025,0.5829262137413025
96,0.9599999785423279,0.10806384682655334,0.10806384682655334,0.001,0.8600000143051147,0.5318451523780823,0.5318451523780823
97,0.9800000190734863,0.09476011246442795,0.09476011246442795,0.001,0.8799999952316284,0.5189756155014038,0.5189756155014038
98,0.9800000190734863,0.06677208095788956,0.06677208095788956,0.001,0.8899999856948853,0.5059026479721069,0.5059026479721069
99,0.9399999976158142,0.12156520038843155,0.12156520038843155,0.001,0.8500000238418579,0.4769854247570038,0.4769854247570038
100,0.9800000190734863,0.049767233431339264,0.049767233431339264,0.001,0.8500000238418579,0.5226848125457764,0.5226848125457764
101,0.9800000190734863,0.044972747564315796,0.044972747564315796,0.001,0.8399999737739563,0.6258507370948792,0.6258507370948792
102,0.9399999976158142,0.13942313194274902,0.13942313194274902,0.001,0.8600000143051147,0.5304809808731079,0.5304809808731079
103,0.9300000071525574,0.1796228438615799,0.1796228438615799,0.001,0.8700000047683716,0.47639769315719604,0.47639769315719604
104,0.9399999976158142,0.13674037158489227,0.13674037158489227,0.0005,0.8899999856948853,0.4960874319076538,0.4960874319076538
105,0.9800000190734863,0.06892961263656616,0.06892961263656616,0.0005,0.8899999856948853,0.4939492344856262,0.4939492344856262
106,0.9399999976158142,0.11047738045454025,0.11047738045454025,0.0005,0.8700000047683716,0.46546420454978943,0.46546420454978943
107,0.9700000286102295,0.09662911295890808,0.09662911295890808,0.0005,0.8500000238418579,0.4708021879196167,0.4708021879196167
108,1.0,0.038184911012649536,0.038184911012649536,0.0005,0.8500000238418579,0.5078835487365723,0.5078835487365723
109,0.9399999976158142,0.09925959259271622,0.09925959259271622,0.0005,0.8500000238418579,0.5207265615463257,0.5207265615463257
110,0.949999988079071,0.10859642922878265,0.10859642922878265,0.0005,0.8399999737739563,0.5042679309844971,0.5042679309844971
111,0.9800000190734863,0.0776590034365654,0.0776590034365654,0.0005,0.8299999833106995,0.48287907242774963,0.48287907242774963
112,0.9800000190734863,0.058113694190979004,0.058113694190979004,0.0005,0.8399999737739563,0.4680624306201935,0.4680624306201935
113,0.9800000190734863,0.054578714072704315,0.054578714072704315,0.0005,0.8600000143051147,0.4697326421737671,0.4697326421737671
114,0.9800000190734863,0.055449310690164566,0.055449310690164566,0.0005,0.8600000143051147,0.48348450660705566,0.48348450660705566
115,0.9300000071525574,0.155984565615654,0.155984565615654,0.0005,0.8600000143051147,0.48147860169410706,0.48147860169410706
116,0.9900000095367432,0.05649978294968605,0.05649978294968605,0.0005,0.8500000238418579,0.47601205110549927,0.47601205110549927
117,0.9800000190734863,0.0403127521276474,0.0403127521276474,0.0005,0.8600000143051147,0.4807974696159363,0.4807974696159363
118,0.9900000095367432,0.039934638887643814,0.039934638887643814,0.0005,0.8399999737739563,0.49834316968917847,0.49834316968917847
119,0.9800000190734863,0.047107528895139694,0.047107528895139694,0.0005,0.8399999737739563,0.5215024352073669,0.5215024352073669
120,0.9800000190734863,0.07279898971319199,0.07279898971319199,0.0005,0.8399999737739563,0.5351417064666748,0.5351417064666748
121,0.9800000190734863,0.057981692254543304,0.057981692254543304,0.0005,0.8399999737739563,0.5416248440742493,0.5416248440742493
122,0.9900000095367432,0.04710482060909271,0.04710482060909271,0.0005,0.8399999737739563,0.5268791317939758,0.5268791317939758
123,0.9900000095367432,0.06151231750845909,0.06151231750845909,0.0005,0.8600000143051147,0.5099650025367737,0.5099650025367737
124,0.9599999785423279,0.07660594582557678,0.07660594582557678,0.0005,0.8600000143051147,0.49419379234313965,0.49419379234313965
125,0.9700000286102295,0.05774322524666786,0.05774322524666786,0.0005,0.8700000047683716,0.497016042470932,0.497016042470932
126,0.9900000095367432,0.04983990266919136,0.04983990266919136,0.0005,0.8799999952316284,0.5085486173629761,0.5085486173629761
127,0.9800000190734863,0.0728115439414978,0.0728115439414978,0.0005,0.8799999952316284,0.5125965476036072,0.5125965476036072
128,0.9800000190734863,0.06302570551633835,0.06302570551633835,0.0005,0.8700000047683716,0.5128937363624573,0.5128937363624573
129,0.9700000286102295,0.07674568891525269,0.07674568891525269,0.0005,0.8600000143051147,0.5180151462554932,0.5180151462554932
130,0.9900000095367432,0.042807016521692276,0.042807016521692276,0.0005,0.8500000238418579,0.5411074161529541,0.5411074161529541
131,0.9800000190734863,0.05107799172401428,0.05107799172401428,0.0005,0.8399999737739563,0.5769059658050537,0.5769059658050537
132,0.9900000095367432,0.058342527598142624,0.058342527598142624,0.0005,0.8399999737739563,0.5979773998260498,0.5979773998260498
133,0.9900000095367432,0.03184965252876282,0.03184965252876282,0.0005,0.8399999737739563,0.5998898148536682,0.5998898148536682
134,0.9700000286102295,0.07338477671146393,0.07338477671146393,0.0005,0.8399999737739563,0.5790417194366455,0.5790417194366455
135,1.0,0.02378975786268711,0.02378975786268711,0.0005,0.8500000238418579,0.568875253200531,0.568875253200531
136,1.0,0.020227091386914253,0.020227091386914253,0.0005,0.8600000143051147,0.5657914876937866,0.5657914876937866
137,0.9900000095367432,0.028077073395252228,0.028077073395252228,0.0005,0.8399999737739563,0.5701853036880493,0.5701853036880493
138,0.9900000095367432,0.04231513664126396,0.04231513664126396,0.0005,0.8600000143051147,0.5801539421081543,0.5801539421081543
139,0.9800000190734863,0.04931022599339485,0.04931022599339485,0.0005,0.8500000238418579,0.5850679278373718,0.5850679278373718
140,0.9700000286102295,0.05863757058978081,0.05863757058978081,0.0005,0.8399999737739563,0.5881018042564392,0.5881018042564392
141,0.9900000095367432,0.04808193817734718,0.04808193817734718,0.0005,0.8500000238418579,0.5981805324554443,0.5981805324554443
142,0.9700000286102295,0.05050547048449516,0.05050547048449516,0.0005,0.8399999737739563,0.6223999261856079,0.6223999261856079
143,1.0,0.02815459668636322,0.02815459668636322,0.0005,0.8399999737739563,0.6632210612297058,0.6632210612297058
144,0.9800000190734863,0.0453687459230423,0.0453687459230423,0.0005,0.8399999737739563,0.6873756647109985,0.6873756647109985
145,0.9900000095367432,0.051161013543605804,0.051161013543605804,0.0005,0.8500000238418579,0.6811766624450684,0.6811766624450684
146,0.9599999785423279,0.09993395954370499,0.09993395954370499,0.0005,0.8299999833106995,0.6274988651275635,0.6274988651275635
147,0.9800000190734863,0.040204714983701706,0.040204714983701706,0.0005,0.8500000238418579,0.5961772203445435,0.5961772203445435
148,0.9599999785423279,0.06007201969623566,0.06007201969623566,0.0005,0.8500000238418579,0.591131329536438,0.591131329536438
149,1.0,0.008218493312597275,0.008218493312597275,0.0005,0.8600000143051147,0.6056882739067078,0.6056882739067078
150,0.9900000095367432,0.03445664048194885,0.03445664048194885,0.0005,0.8700000047683716,0.6226766705513,0.6226766705513
151,0.9599999785423279,0.08537041395902634,0.08537041395902634,0.0005,0.8600000143051147,0.6113453507423401,0.6113453507423401
152,0.949999988079071,0.0884067639708519,0.0884067639708519,0.0005,0.8500000238418579,0.6055305600166321,0.6055305600166321
153,0.9800000190734863,0.027412088587880135,0.027412088587880135,0.0005,0.8500000238418579,0.6569738984107971,0.6569738984107971
154,0.9700000286102295,0.05323590338230133,0.05323590338230133,0.00025,0.8399999737739563,0.6850169897079468,0.6850169897079468
155,0.9599999785423279,0.058200348168611526,0.058200348168611526,0.00025,0.8299999833106995,0.6975206136703491,0.6975206136703491
156,0.9700000286102295,0.06361498683691025,0.06361498683691025,0.00025,0.8299999833106995,0.690468430519104,0.690468430519104
157,0.9800000190734863,0.05279242619872093,0.05279242619872093,0.00025,0.8399999737739563,0.6704016327857971,0.6704016327857971
158,0.9800000190734863,0.033004045486450195,0.033004045486450195,0.00025,0.8500000238418579,0.6531651020050049,0.6531651020050049
159,0.9800000190734863,0.05800628662109375,0.05800628662109375,0.00025,0.8500000238418579,0.6311633586883545,0.6311633586883545
160,0.9900000095367432,0.062307409942150116,0.062307409942150116,0.00025,0.8500000238418579,0.6173363327980042,0.6173363327980042
161,0.9800000190734863,0.03712894767522812,0.03712894767522812,0.00025,0.8600000143051147,0.6120205521583557,0.6120205521583557
162,0.9700000286102295,0.050913773477077484,0.050913773477077484,0.00025,0.8600000143051147,0.6126462817192078,0.6126462817192078
163,0.9599999785423279,0.09303365647792816,0.09303365647792816,0.00025,0.8600000143051147,0.6113755106925964,0.6113755106925964
164,0.9900000095367432,0.02689725160598755,0.02689725160598755,0.00025,0.8600000143051147,0.6108238697052002,0.6108238697052002
165,0.9599999785423279,0.07581086456775665,0.07581086456775665,0.00025,0.8600000143051147,0.6125214099884033,0.6125214099884033
166,1.0,0.011111216619610786,0.011111216619610786,0.00025,0.8500000238418579,0.6177489757537842,0.6177489757537842
167,0.9800000190734863,0.03220495954155922,0.03220495954155922,0.00025,0.8500000238418579,0.6253591775894165,0.6253591775894165
168,0.9900000095367432,0.024652771651744843,0.024652771651744843,0.00025,0.8399999737739563,0.6344876885414124,0.6344876885414124
169,0.9900000095367432,0.0260632187128067,0.0260632187128067,0.00025,0.8399999737739563,0.641848623752594,0.641848623752594
170,0.9599999785423279,0.042521726340055466,0.042521726340055466,0.00025,0.8399999737739563,0.6432952880859375,0.6432952880859375
171,0.9900000095367432,0.022551342844963074,0.022551342844963074,0.00025,0.8399999737739563,0.641567587852478,0.641567587852478
172,0.9800000190734863,0.06090955808758736,0.06090955808758736,0.00025,0.8399999737739563,0.6336396336555481,0.6336396336555481
173,0.9900000095367432,0.037776365876197815,0.037776365876197815,0.00025,0.8500000238418579,0.6298099160194397,0.6298099160194397
174,0.9900000095367432,0.04271921515464783,0.04271921515464783,0.00025,0.8500000238418579,0.6272404789924622,0.6272404789924622
175,0.9900000095367432,0.03911847248673439,0.03911847248673439,0.00025,0.8600000143051147,0.6250331997871399,0.6250331997871399
176,0.9800000190734863,0.054766830056905746,0.054766830056905746,0.00025,0.8600000143051147,0.6265361905097961,0.6265361905097961
177,0.9700000286102295,0.0755084753036499,0.0755084753036499,0.00025,0.8600000143051147,0.6278996467590332,0.6278996467590332
178,1.0,0.01665879413485527,0.01665879413485527,0.00025,0.8600000143051147,0.6289673447608948,0.6289673447608948
179,0.9800000190734863,0.0456707663834095,0.0456707663834095,0.00025,0.8500000238418579,0.6317930817604065,0.6317930817604065
180,0.9800000190734863,0.08896508067846298,0.08896508067846298,0.00025,0.8399999737739563,0.6342432498931885,0.6342432498931885
181,0.9900000095367432,0.025825954973697662,0.025825954973697662,0.00025,0.8399999737739563,0.637009859085083,0.637009859085083
182,1.0,0.028575360774993896,0.028575360774993896,0.00025,0.8399999737739563,0.6383975744247437,0.6383975744247437
183,0.9800000190734863,0.03714028373360634,0.03714028373360634,0.00025,0.8399999737739563,0.6444337368011475,0.6444337368011475
184,0.9900000095367432,0.023566732183098793,0.023566732183098793,0.00025,0.8399999737739563,0.6492295861244202,0.6492295861244202
185,0.9300000071525574,0.20582164824008942,0.20582164824008942,0.00025,0.8399999737739563,0.6448279619216919,0.6448279619216919
186,0.9800000190734863,0.0545637384057045,0.0545637384057045,0.00025,0.8399999737739563,0.6385574340820312,0.6385574340820312
187,0.9900000095367432,0.03485909104347229,0.03485909104347229,0.00025,0.8399999737739563,0.6366048455238342,0.6366048455238342
188,0.9800000190734863,0.057126402854919434,0.057126402854919434,0.00025,0.8500000238418579,0.6381117105484009,0.6381117105484009
189,0.9900000095367432,0.027757277712225914,0.027757277712225914,0.00025,0.8399999737739563,0.6405799984931946,0.6405799984931946
190,1.0,0.022131962701678276,0.022131962701678276,0.00025,0.8399999737739563,0.6437446475028992,0.6437446475028992
191,0.9900000095367432,0.015591560862958431,0.015591560862958431,0.00025,0.8399999737739563,0.6483996510505676,0.6483996510505676
192,0.9900000095367432,0.03051937185227871,0.03051937185227871,0.00025,0.8399999737739563,0.651430070400238,0.651430070400238
193,0.9900000095367432,0.029942063614726067,0.029942063614726067,0.00025,0.8399999737739563,0.6517203450202942,0.6517203450202942
194,0.9800000190734863,0.04521201550960541,0.04521201550960541,0.00025,0.8399999737739563,0.653076708316803,0.653076708316803
195,0.9599999785423279,0.06362906843423843,0.06362906843423843,0.00025,0.8399999737739563,0.6517202854156494,0.6517202854156494
196,1.0,0.014720490202307701,0.014720490202307701,0.00025,0.8399999737739563,0.6504862308502197,0.6504862308502197
197,0.9900000095367432,0.0290141049772501,0.0290141049772501,0.00025,0.8399999737739563,0.6491442322731018,0.6491442322731018
198,0.9900000095367432,0.03127961978316307,0.03127961978316307,0.00025,0.8399999737739563,0.6507417559623718,0.6507417559623718
199,0.9800000190734863,0.09279673546552658,0.09279673546552658,0.00025,0.8399999737739563,0.6482882499694824,0.6482882499694824
200,0.9800000190734863,0.07036607712507248,0.07036607712507248,0.00025,0.8399999737739563,0.6470544338226318,0.6470544338226318
201,0.9900000095367432,0.023693108931183815,0.023693108931183815,0.00025,0.8399999737739563,0.6458675265312195,0.6458675265312195
202,0.9800000190734863,0.027982253581285477,0.027982253581285477,0.00025,0.8500000238418579,0.645121693611145,0.645121693611145
203,0.9900000095367432,0.03925018012523651,0.03925018012523651,0.00025,0.8500000238418579,0.6468265652656555,0.6468265652656555
204,0.9800000190734863,0.033448319882154465,0.033448319882154465,0.000125,0.8500000238418579,0.6464141011238098,0.6464141011238098
205,1.0,0.023204099386930466,0.023204099386930466,0.000125,0.8500000238418579,0.6457257270812988,0.6457257270812988
206,0.9900000095367432,0.04288790374994278,0.04288790374994278,0.000125,0.8500000238418579,0.6459609270095825,0.6459609270095825
207,1.0,0.014311717823147774,0.014311717823147774,0.000125,0.8500000238418579,0.6464762091636658,0.6464762091636658
208,1.0,0.02522868849337101,0.02522868849337101,0.000125,0.8500000238418579,0.6467127799987793,0.6467127799987793
209,1.0,0.026584191247820854,0.026584191247820854,0.000125,0.8500000238418579,0.6462164521217346,0.6462164521217346
210,0.9900000095367432,0.04456772655248642,0.04456772655248642,0.000125,0.8500000238418579,0.644848644733429,0.644848644733429
211,1.0,0.019835468381643295,0.019835468381643295,0.000125,0.8500000238418579,0.6430124640464783,0.6430124640464783
212,0.9599999785423279,0.08137139678001404,0.08137139678001404,0.000125,0.8500000238418579,0.6419399976730347,0.6419399976730347
213,1.0,0.026997191831469536,0.026997191831469536,0.000125,0.8399999737739563,0.6407985687255859,0.6407985687255859
214,0.9800000190734863,0.05428646504878998,0.05428646504878998,0.000125,0.8500000238418579,0.6406121253967285,0.6406121253967285
215,0.9900000095367432,0.019657371565699577,0.019657371565699577,0.000125,0.8500000238418579,0.6411401629447937,0.6411401629447937
216,0.9599999785423279,0.07037036120891571,0.07037036120891571,0.000125,0.8500000238418579,0.642016589641571,0.642016589641571
217,0.9800000190734863,0.07944394648075104,0.07944394648075104,0.000125,0.8500000238418579,0.6460887789726257,0.6460887789726257
218,0.9599999785423279,0.06080057471990585,0.06080057471990585,0.000125,0.8399999737739563,0.6536273956298828,0.6536273956298828
219,0.9900000095367432,0.026942329481244087,0.026942329481244087,0.000125,0.8299999833106995,0.659180760383606,0.659180760383606
220,0.9800000190734863,0.06815620511770248,0.06815620511770248,0.000125,0.8299999833106995,0.6634020805358887,0.6634020805358887
221,0.9800000190734863,0.042663946747779846,0.042663946747779846,0.000125,0.8399999737739563,0.666511058807373,0.666511058807373
222,0.9700000286102295,0.05524029582738876,0.05524029582738876,0.000125,0.8399999737739563,0.6678352355957031,0.6678352355957031
223,0.9800000190734863,0.030624711886048317,0.030624711886048317,0.000125,0.8399999737739563,0.6627714037895203,0.6627714037895203
224,0.9800000190734863,0.03856793791055679,0.03856793791055679,0.000125,0.8299999833106995,0.6533601880073547,0.6533601880073547
225,0.9800000190734863,0.03322163224220276,0.03322163224220276,0.000125,0.8299999833106995,0.6418794393539429,0.6418794393539429
226,0.9800000190734863,0.047531262040138245,0.047531262040138245,0.000125,0.8500000238418579,0.6309375166893005,0.6309375166893005
227,0.9800000190734863,0.03172485902905464,0.03172485902905464,0.000125,0.8600000143051147,0.6223750710487366,0.6223750710487366
228,0.9800000190734863,0.042386364191770554,0.042386364191770554,0.000125,0.8700000047683716,0.6186352968215942,0.6186352968215942
229,0.9599999785423279,0.058193620294332504,0.058193620294332504,0.000125,0.8600000143051147,0.6171479225158691,0.6171479225158691
230,0.9900000095367432,0.025527331978082657,0.025527331978082657,0.000125,0.8600000143051147,0.617767333984375,0.617767333984375
231,1.0,0.017135340720415115,0.017135340720415115,0.000125,0.8500000238418579,0.6191370487213135,0.6191370487213135
232,0.9700000286102295,0.07003459334373474,0.07003459334373474,0.000125,0.8500000238418579,0.618992805480957,0.618992805480957
233,0.9800000190734863,0.043470945209264755,0.043470945209264755,0.000125,0.8500000238418579,0.6199872493743896,0.6199872493743896
234,0.9900000095367432,0.03409988805651665,0.03409988805651665,0.000125,0.8600000143051147,0.6207122206687927,0.6207122206687927
235,0.9900000095367432,0.03462616354227066,0.03462616354227066,0.000125,0.8700000047683716,0.621070921421051,0.621070921421051
236,1.0,0.01568254455924034,0.01568254455924034,0.000125,0.8600000143051147,0.6230941414833069,0.6230941414833069
237,0.9900000095367432,0.056705866008996964,0.056705866008996964,0.000125,0.8600000143051147,0.6280505657196045,0.6280505657196045
238,1.0,0.022704754024744034,0.022704754024744034,0.000125,0.8500000238418579,0.6364262104034424,0.6364262104034424
239,0.9599999785423279,0.09992276132106781,0.09992276132106781,0.000125,0.8500000238418579,0.6379253268241882,0.6379253268241882
240,0.9800000190734863,0.06461934000253677,0.06461934000253677,0.000125,0.8500000238418579,0.644406795501709,0.644406795501709
241,0.9700000286102295,0.07842820137739182,0.07842820137739182,0.000125,0.8399999737739563,0.6478407979011536,0.6478407979011536
242,0.9800000190734863,0.04759819060564041,0.04759819060564041,0.000125,0.8399999737739563,0.6497929096221924,0.6497929096221924
243,0.9900000095367432,0.044035181403160095,0.044035181403160095,0.000125,0.8399999737739563,0.6506533026695251,0.6506533026695251
244,0.9700000286102295,0.06260551512241364,0.06260551512241364,0.000125,0.8399999737739563,0.6492614150047302,0.6492614150047302
245,0.9700000286102295,0.061400726437568665,0.061400726437568665,0.000125,0.8399999737739563,0.6509391665458679,0.6509391665458679
246,0.9800000190734863,0.044727325439453125,0.044727325439453125,0.000125,0.8399999737739563,0.6522839069366455,0.6522839069366455
247,0.9800000190734863,0.02699754200875759,0.02699754200875759,0.000125,0.8399999737739563,0.6538752913475037,0.6538752913475037
248,0.9900000095367432,0.03237241134047508,0.03237241134047508,0.000125,0.8500000238418579,0.6520658731460571,0.6520658731460571
249,0.9900000095367432,0.028865249827504158,0.028865249827504158,0.000125,0.8500000238418579,0.6517037749290466,0.6517037749290466
250,0.9700000286102295,0.03444220870733261,0.03444220870733261,0.000125,0.8500000238418579,0.6528882384300232,0.6528882384300232
251,0.9800000190734863,0.028493566438555717,0.028493566438555717,0.000125,0.8500000238418579,0.6532140374183655,0.6532140374183655
252,0.949999988079071,0.08967795222997665,0.08967795222997665,0.000125,0.8500000238418579,0.6492167711257935,0.6492167711257935
253,0.9900000095367432,0.03561219573020935,0.03561219573020935,0.000125,0.8500000238418579,0.6474238038063049,0.6474238038063049
254,0.9900000095367432,0.030723826959729195,0.030723826959729195,1e-04,0.8500000238418579,0.6474611759185791,0.6474611759185791
255,0.9900000095367432,0.02802114747464657,0.02802114747464657,1e-04,0.8500000238418579,0.6457552313804626,0.6457552313804626
256,0.9900000095367432,0.04020829498767853,0.04020829498767853,1e-04,0.8500000238418579,0.6449622511863708,0.6449622511863708
257,0.9800000190734863,0.04224691540002823,0.04224691540002823,1e-04,0.8500000238418579,0.6441780924797058,0.6441780924797058
258,0.9700000286102295,0.07509149610996246,0.07509149610996246,1e-04,0.8500000238418579,0.6433703899383545,0.6433703899383545
259,0.9900000095367432,0.01615770161151886,0.01615770161151886,1e-04,0.8500000238418579,0.6429794430732727,0.6429794430732727
260,1.0,0.01122126542031765,0.01122126542031765,1e-04,0.8500000238418579,0.6434088349342346,0.6434088349342346
261,0.9599999785423279,0.07117930054664612,0.07117930054664612,1e-04,0.8500000238418579,0.6438273787498474,0.6438273787498474
262,0.9900000095367432,0.031001947820186615,0.031001947820186615,1e-04,0.8500000238418579,0.6458960175514221,0.6458960175514221
263,0.9800000190734863,0.026178620755672455,0.026178620755672455,1e-04,0.8500000238418579,0.647196352481842,0.647196352481842
264,0.9599999785423279,0.096140056848526,0.096140056848526,1e-04,0.8500000238418579,0.6491081714630127,0.6491081714630127
265,0.9599999785423279,0.06486816704273224,0.06486816704273224,1e-04,0.8500000238418579,0.6480035185813904,0.6480035185813904
266,0.9800000190734863,0.04081397131085396,0.04081397131085396,1e-04,0.8500000238418579,0.647921085357666,0.647921085357666
267,0.9700000286102295,0.12079106271266937,0.12079106271266937,1e-04,0.8500000238418579,0.6474375128746033,0.6474375128746033
268,0.9700000286102295,0.04164496436715126,0.04164496436715126,1e-04,0.8500000238418579,0.6471206545829773,0.6471206545829773
269,0.9800000190734863,0.059082236140966415,0.059082236140966415,1e-04,0.8500000238418579,0.6479197144508362,0.6479197144508362
270,1.0,0.01895119436085224,0.01895119436085224,1e-04,0.8500000238418579,0.6492357850074768,0.6492357850074768
271,0.9900000095367432,0.04735429212450981,0.04735429212450981,1e-04,0.8500000238418579,0.6519055962562561,0.6519055962562561
272,0.9700000286102295,0.0482175350189209,0.0482175350189209,1e-04,0.8500000238418579,0.6544976234436035,0.6544976234436035
273,0.9599999785423279,0.09155191481113434,0.09155191481113434,1e-04,0.8500000238418579,0.6560012698173523,0.6560012698173523
274,0.9700000286102295,0.04582122340798378,0.04582122340798378,1e-04,0.8500000238418579,0.6558789610862732,0.6558789610862732
275,0.9900000095367432,0.042417820543050766,0.042417820543050766,1e-04,0.8500000238418579,0.6555289626121521,0.6555289626121521
276,1.0,0.015984047204256058,0.015984047204256058,1e-04,0.8500000238418579,0.6548014283180237,0.6548014283180237
277,0.9800000190734863,0.05560947582125664,0.05560947582125664,1e-04,0.8500000238418579,0.6542364358901978,0.6542364358901978
278,1.0,0.02590126544237137,0.02590126544237137,1e-04,0.8500000238418579,0.653992235660553,0.653992235660553
279,1.0,0.024725886061787605,0.024725886061787605,1e-04,0.8500000238418579,0.6542216539382935,0.6542216539382935
280,0.9800000190734863,0.06910423934459686,0.06910423934459686,1e-04,0.8500000238418579,0.6563969254493713,0.6563969254493713
281,0.9800000190734863,0.0610605850815773,0.0610605850815773,1e-04,0.8500000238418579,0.6578930616378784,0.6578930616378784
282,1.0,0.01710694283246994,0.01710694283246994,1e-04,0.8500000238418579,0.6591129302978516,0.6591129302978516
283,1.0,0.014368577860295773,0.014368577860295773,1e-04,0.8500000238418579,0.6603151559829712,0.6603151559829712
284,0.9700000286102295,0.057792678475379944,0.057792678475379944,1e-04,0.8500000238418579,0.6611303091049194,0.6611303091049194
285,1.0,0.027098536491394043,0.027098536491394043,1e-04,0.8500000238418579,0.6631218791007996,0.6631218791007996
286,0.9900000095367432,0.03731593117117882,0.03731593117117882,1e-04,0.8500000238418579,0.6643525958061218,0.6643525958061218
287,0.9900000095367432,0.04120398685336113,0.04120398685336113,1e-04,0.8500000238418579,0.6669654846191406,0.6669654846191406
288,0.9800000190734863,0.041035912930965424,0.041035912930965424,1e-04,0.8500000238418579,0.6695331335067749,0.6695331335067749
289,1.0,0.011338625103235245,0.011338625103235245,1e-04,0.8500000238418579,0.6716960668563843,0.6716960668563843
290,1.0,0.012493584305047989,0.012493584305047989,1e-04,0.8500000238418579,0.6741318702697754,0.6741318702697754
291,1.0,0.01566493697464466,0.01566493697464466,1e-04,0.8500000238418579,0.6764053106307983,0.6764053106307983
292,0.9800000190734863,0.04238520562648773,0.04238520562648773,1e-04,0.8500000238418579,0.6773188710212708,0.6773188710212708
293,0.9900000095367432,0.026738598942756653,0.026738598942756653,1e-04,0.8399999737739563,0.678748607635498,0.678748607635498
294,1.0,0.0161131639033556,0.0161131639033556,1e-04,0.8399999737739563,0.6797009110450745,0.6797009110450745
295,0.9800000190734863,0.046867989003658295,0.046867989003658295,1e-04,0.8399999737739563,0.6786389946937561,0.6786389946937561
296,0.9900000095367432,0.03764538839459419,0.03764538839459419,1e-04,0.8399999737739563,0.6768246293067932,0.6768246293067932
297,1.0,0.012440614402294159,0.012440614402294159,1e-04,0.8399999737739563,0.6738923788070679,0.6738923788070679
298,0.9900000095367432,0.016464989632368088,0.016464989632368088,1e-04,0.8399999737739563,0.6733700633049011,0.6733700633049011
299,0.9900000095367432,0.025295693427324295,0.025295693427324295,1e-04,0.8399999737739563,0.6741341948509216,0.6741341948509216
300,1.0,0.012213045731186867,0.012213045731186867,1e-04,0.8399999737739563,0.6747658252716064,0.6747658252716064
301,1.0,0.01087999064475298,0.01087999064475298,1e-04,0.8299999833106995,0.6750930547714233,0.6750930547714233
302,1.0,0.013837027363479137,0.013837027363479137,1e-04,0.8299999833106995,0.6750200390815735,0.6750200390815735
303,0.9700000286102295,0.08084309846162796,0.08084309846162796,1e-04,0.8399999737739563,0.6743562817573547,0.6743562817573547
304,0.9900000095367432,0.03503094241023064,0.03503094241023064,1e-04,0.8399999737739563,0.6746355295181274,0.6746355295181274
305,0.9900000095367432,0.02913067303597927,0.02913067303597927,1e-04,0.8399999737739563,0.6732397675514221,0.6732397675514221
306,1.0,0.012796805240213871,0.012796805240213871,1e-04,0.8399999737739563,0.6724230051040649,0.6724230051040649
307,1.0,0.015978150069713593,0.015978150069713593,1e-04,0.8399999737739563,0.6714562177658081,0.6714562177658081
308,0.9900000095367432,0.04245947673916817,0.04245947673916817,1e-04,0.8399999737739563,0.6712090969085693,0.6712090969085693
309,0.9900000095367432,0.027967732399702072,0.027967732399702072,1e-04,0.8399999737739563,0.6712358593940735,0.6712358593940735
310,0.9800000190734863,0.04889244586229324,0.04889244586229324,1e-04,0.8399999737739563,0.6715932488441467,0.6715932488441467
311,0.9800000190734863,0.03777278959751129,0.03777278959751129,1e-04,0.8399999737739563,0.6705265045166016,0.6705265045166016
312,0.9800000190734863,0.04511045292019844,0.04511045292019844,1e-04,0.8399999737739563,0.668183445930481,0.668183445930481
313,0.9800000190734863,0.06329714506864548,0.06329714506864548,1e-04,0.8600000143051147,0.6664310693740845,0.6664310693740845
314,0.9900000095367432,0.04059824347496033,0.04059824347496033,1e-04,0.8600000143051147,0.665108859539032,0.665108859539032
315,0.9700000286102295,0.044232431799173355,0.044232431799173355,1e-04,0.8600000143051147,0.6636494398117065,0.6636494398117065
316,0.9800000190734863,0.045068807899951935,0.045068807899951935,1e-04,0.8600000143051147,0.6630145311355591,0.6630145311355591
317,0.9800000190734863,0.035126298666000366,0.035126298666000366,1e-04,0.8600000143051147,0.6620957255363464,0.6620957255363464
318,0.9900000095367432,0.03357410430908203,0.03357410430908203,1e-04,0.8600000143051147,0.6614818572998047,0.6614818572998047
319,1.0,0.02008657157421112,0.02008657157421112,1e-04,0.8600000143051147,0.6615213751792908,0.6615213751792908
320,0.9900000095367432,0.025276917964220047,0.025276917964220047,1e-04,0.8500000238418579,0.6624239087104797,0.6624239087104797
321,0.9900000095367432,0.034801922738552094,0.034801922738552094,1e-04,0.8399999737739563,0.6651192307472229,0.6651192307472229
322,0.9700000286102295,0.05803079530596733,0.05803079530596733,1e-04,0.8299999833106995,0.6700063943862915,0.6700063943862915
323,1.0,0.009349466301500797,0.009349466301500797,1e-04,0.8399999737739563,0.6770150661468506,0.6770150661468506
324,0.9700000286102295,0.06602628529071808,0.06602628529071808,1e-04,0.8399999737739563,0.6821773648262024,0.6821773648262024
325,0.9800000190734863,0.04053919017314911,0.04053919017314911,1e-04,0.8299999833106995,0.688545823097229,0.688545823097229
326,0.9599999785423279,0.06818710267543793,0.06818710267543793,1e-04,0.8299999833106995,0.6951452493667603,0.6951452493667603
327,0.9700000286102295,0.0936124324798584,0.0936124324798584,1e-04,0.8299999833106995,0.6942244172096252,0.6942244172096252
328,0.9800000190734863,0.031642984598875046,0.031642984598875046,1e-04,0.8399999737739563,0.6902024745941162,0.6902024745941162
329,0.9700000286102295,0.05816095322370529,0.05816095322370529,1e-04,0.8399999737739563,0.6869245171546936,0.6869245171546936
330,0.9800000190734863,0.04063892737030983,0.04063892737030983,1e-04,0.8399999737739563,0.6818957328796387,0.6818957328796387
331,0.9900000095367432,0.026846928521990776,0.026846928521990776,1e-04,0.8500000238418579,0.6776832342147827,0.6776832342147827
332,0.9900000095367432,0.024680424481630325,0.024680424481630325,1e-04,0.8500000238418579,0.6772011518478394,0.6772011518478394
333,0.9900000095367432,0.028304625302553177,0.028304625302553177,1e-04,0.8500000238418579,0.6753706932067871,0.6753706932067871
334,1.0,0.013722671195864677,0.013722671195864677,1e-04,0.8600000143051147,0.6749551296234131,0.6749551296234131
335,1.0,0.01980516128242016,0.01980516128242016,1e-04,0.8600000143051147,0.6762529611587524,0.6762529611587524
336,1.0,0.01885119453072548,0.01885119453072548,1e-04,0.8600000143051147,0.678061842918396,0.678061842918396
337,0.9900000095367432,0.021530523896217346,0.021530523896217346,1e-04,0.8600000143051147,0.6799226403236389,0.6799226403236389
338,0.9900000095367432,0.025655625388026237,0.025655625388026237,1e-04,0.8600000143051147,0.6809430718421936,0.6809430718421936
339,0.9900000095367432,0.032548367977142334,0.032548367977142334,1e-04,0.8500000238418579,0.6824095845222473,0.6824095845222473
340,0.9800000190734863,0.04748958721756935,0.04748958721756935,1e-04,0.8500000238418579,0.684215247631073,0.684215247631073
341,0.9900000095367432,0.029287181794643402,0.029287181794643402,1e-04,0.8500000238418579,0.6855388879776001,0.6855388879776001
342,0.9900000095367432,0.03537110239267349,0.03537110239267349,1e-04,0.8500000238418579,0.6862891316413879,0.6862891316413879
343,0.9800000190734863,0.02767852693796158,0.02767852693796158,1e-04,0.8500000238418579,0.6871147155761719,0.6871147155761719
344,0.9800000190734863,0.06890425086021423,0.06890425086021423,1e-04,0.8500000238418579,0.6884567141532898,0.6884567141532898
345,1.0,0.019152050837874413,0.019152050837874413,1e-04,0.8500000238418579,0.6902399659156799,0.6902399659156799
346,0.9700000286102295,0.0752655491232872,0.0752655491232872,1e-04,0.8500000238418579,0.6922857165336609,0.6922857165336609
347,0.9700000286102295,0.06625452637672424,0.06625452637672424,1e-04,0.8500000238418579,0.6944466233253479,0.6944466233253479
348,0.9900000095367432,0.04155956581234932,0.04155956581234932,1e-04,0.8500000238418579,0.6960776448249817,0.6960776448249817
349,0.9900000095367432,0.04253610223531723,0.04253610223531723,1e-04,0.8500000238418579,0.7005939483642578,0.7005939483642578
350,0.9800000190734863,0.060479551553726196,0.060479551553726196,1e-04,0.8500000238418579,0.7047021389007568,0.7047021389007568
351,1.0,0.015074914321303368,0.015074914321303368,1e-04,0.8500000238418579,0.7079009413719177,0.7079009413719177
352,1.0,0.018498633056879044,0.018498633056879044,1e-04,0.8500000238418579,0.708777666091919,0.708777666091919
353,0.9900000095367432,0.0172021072357893,0.0172021072357893,1e-04,0.8399999737739563,0.7106770873069763,0.7106770873069763
354,0.9800000190734863,0.07597870379686356,0.07597870379686356,1e-04,0.8399999737739563,0.7114772200584412,0.7114772200584412
355,1.0,0.014096135273575783,0.014096135273575783,1e-04,0.8399999737739563,0.7115143537521362,0.7115143537521362
356,1.0,0.020626060664653778,0.020626060664653778,1e-04,0.8399999737739563,0.7090996503829956,0.7090996503829956
357,0.9900000095367432,0.01922253519296646,0.01922253519296646,1e-04,0.8500000238418579,0.7076835632324219,0.7076835632324219
358,0.9900000095367432,0.034556422382593155,0.034556422382593155,1e-04,0.8500000238418579,0.7056849598884583,0.7056849598884583
359,1.0,0.01394607312977314,0.01394607312977314,1e-04,0.8500000238418579,0.7039268612861633,0.7039268612861633
360,0.9599999785423279,0.11594633758068085,0.11594633758068085,1e-04,0.8500000238418579,0.7029227614402771,0.7029227614402771
361,0.9599999785423279,0.05713573470711708,0.05713573470711708,1e-04,0.8500000238418579,0.6992623209953308,0.6992623209953308
362,0.9700000286102295,0.0664457157254219,0.0664457157254219,1e-04,0.8500000238418579,0.6965093016624451,0.6965093016624451
363,0.9900000095367432,0.05678936094045639,0.05678936094045639,1e-04,0.8500000238418579,0.6923543810844421,0.6923543810844421
364,1.0,0.022178148850798607,0.022178148850798607,1e-04,0.8500000238418579,0.6885467767715454,0.6885467767715454
365,0.9800000190734863,0.04353081062436104,0.04353081062436104,1e-04,0.8500000238418579,0.6827646493911743,0.6827646493911743
366,0.9700000286102295,0.0363243967294693,0.0363243967294693,1e-04,0.8500000238418579,0.6780137419700623,0.6780137419700623
367,0.9700000286102295,0.09338372200727463,0.09338372200727463,1e-04,0.8500000238418579,0.6743115186691284,0.6743115186691284
368,0.9800000190734863,0.10263700783252716,0.10263700783252716,1e-04,0.8500000238418579,0.6708589792251587,0.6708589792251587
369,1.0,0.013428649865090847,0.013428649865090847,1e-04,0.8500000238418579,0.6684237122535706,0.6684237122535706
370,0.9800000190734863,0.045996394008398056,0.045996394008398056,1e-04,0.8500000238418579,0.6646307110786438,0.6646307110786438
371,0.9900000095367432,0.04604613408446312,0.04604613408446312,1e-04,0.8500000238418579,0.6620450019836426,0.6620450019836426
372,0.9900000095367432,0.03249027580022812,0.03249027580022812,1e-04,0.8500000238418579,0.6596922874450684,0.6596922874450684
373,0.9900000095367432,0.020525449886918068,0.020525449886918068,1e-04,0.8500000238418579,0.6594248414039612,0.6594248414039612
374,0.9900000095367432,0.03820733353495598,0.03820733353495598,1e-04,0.8500000238418579,0.659325122833252,0.659325122833252
375,0.9900000095367432,0.03388601168990135,0.03388601168990135,1e-04,0.8399999737739563,0.6600715517997742,0.6600715517997742
376,0.9900000095367432,0.022028964012861252,0.022028964012861252,1e-04,0.8399999737739563,0.6607878804206848,0.6607878804206848
377,0.9900000095367432,0.053099874407052994,0.053099874407052994,1e-04,0.8399999737739563,0.6624132394790649,0.6624132394790649
378,0.9900000095367432,0.022597458213567734,0.022597458213567734,1e-04,0.8399999737739563,0.6647621989250183,0.6647621989250183
379,0.9800000190734863,0.04607214778661728,0.04607214778661728,1e-04,0.8399999737739563,0.6672839522361755,0.6672839522361755
380,1.0,0.02643974870443344,0.02643974870443344,1e-04,0.8299999833106995,0.6698705554008484,0.6698705554008484
381,0.9900000095367432,0.03226690739393234,0.03226690739393234,1e-04,0.8299999833106995,0.6713337898254395,0.6713337898254395
382,0.9700000286102295,0.046916745603084564,0.046916745603084564,1e-04,0.8299999833106995,0.6694005727767944,0.6694005727767944
383,0.9800000190734863,0.050952401012182236,0.050952401012182236,1e-04,0.8399999737739563,0.6669644117355347,0.6669644117355347
384,0.9700000286102295,0.08525253087282181,0.08525253087282181,1e-04,0.8299999833106995,0.6696562767028809,0.6696562767028809
385,0.9800000190734863,0.045890018343925476,0.045890018343925476,1e-04,0.8399999737739563,0.6681992411613464,0.6681992411613464
386,0.9900000095367432,0.018048683181405067,0.018048683181405067,1e-04,0.8399999737739563,0.664598286151886,0.664598286151886
387,0.9700000286102295,0.0790136307477951,0.0790136307477951,1e-04,0.8399999737739563,0.6600971817970276,0.6600971817970276
388,0.9900000095367432,0.0582023523747921,0.0582023523747921,1e-04,0.8399999737739563,0.6596671938896179,0.6596671938896179
389,0.9800000190734863,0.03778345510363579,0.03778345510363579,1e-04,0.8399999737739563,0.6595643758773804,0.6595643758773804
390,0.9900000095367432,0.029828539118170738,0.029828539118170738,1e-04,0.8500000238418579,0.658915638923645,0.658915638923645
391,0.9700000286102295,0.1019437238574028,0.1019437238574028,1e-04,0.8500000238418579,0.6572448015213013,0.6572448015213013
392,0.9800000190734863,0.04282049834728241,0.04282049834728241,1e-04,0.8500000238418579,0.6561464071273804,0.6561464071273804
393,1.0,0.010598111897706985,0.010598111897706985,1e-04,0.8500000238418579,0.6554322242736816,0.6554322242736816
394,0.9900000095367432,0.04795946553349495,0.04795946553349495,1e-04,0.8500000238418579,0.6551321148872375,0.6551321148872375
395,1.0,0.016471518203616142,0.016471518203616142,1e-04,0.8600000143051147,0.6559550762176514,0.6559550762176514
396,0.9900000095367432,0.034107789397239685,0.034107789397239685,1e-04,0.8600000143051147,0.6555233001708984,0.6555233001708984
397,0.9599999785423279,0.08276116102933884,0.08276116102933884,1e-04,0.8600000143051147,0.6555970907211304,0.6555970907211304
398,0.9700000286102295,0.054317407310009,0.054317407310009,1e-04,0.8600000143051147,0.6557930111885071,0.6557930111885071
399,0.9900000095367432,0.02564139850437641,0.02564139850437641,1e-04,0.8600000143051147,0.656406581401825,0.656406581401825
400,0.9900000095367432,0.026129012927412987,0.026129012927412987,1e-04,0.8500000238418579,0.6572645306587219,0.6572645306587219
401,1.0,0.01420265156775713,0.01420265156775713,1e-04,0.8500000238418579,0.6603325605392456,0.6603325605392456
402,0.9900000095367432,0.02763466350734234,0.02763466350734234,1e-04,0.8500000238418579,0.6633641719818115,0.6633641719818115
403,0.9900000095367432,0.032721687108278275,0.032721687108278275,1e-04,0.8500000238418579,0.6697061061859131,0.6697061061859131
404,1.0,0.010884149931371212,0.010884149931371212,1e-04,0.8500000238418579,0.6762022972106934,0.6762022972106934
405,0.9900000095367432,0.0777868703007698,0.0777868703007698,1e-04,0.8500000238418579,0.6820626258850098,0.6820626258850098
406,0.9800000190734863,0.04239179193973541,0.04239179193973541,1e-04,0.8500000238418579,0.6855767965316772,0.6855767965316772
407,0.9700000286102295,0.05814094841480255,0.05814094841480255,1e-04,0.8500000238418579,0.685509204864502,0.685509204864502
408,0.9800000190734863,0.03104780986905098,0.03104780986905098,1e-04,0.8500000238418579,0.6879221200942993,0.6879221200942993
409,0.9800000190734863,0.05049785226583481,0.05049785226583481,1e-04,0.8500000238418579,0.685550332069397,0.685550332069397
410,0.9900000095367432,0.023802611976861954,0.023802611976861954,1e-04,0.8500000238418579,0.6812680959701538,0.6812680959701538
411,0.9700000286102295,0.03962273523211479,0.03962273523211479,1e-04,0.8500000238418579,0.6768719553947449,0.6768719553947449
412,0.9800000190734863,0.03685558959841728,0.03685558959841728,1e-04,0.8500000238418579,0.6761115193367004,0.6761115193367004
413,0.9800000190734863,0.08079425990581512,0.08079425990581512,1e-04,0.8500000238418579,0.6740632653236389,0.6740632653236389
414,1.0,0.010050129145383835,0.010050129145383835,1e-04,0.8500000238418579,0.6733112931251526,0.6733112931251526
415,0.9900000095367432,0.031361065804958344,0.031361065804958344,1e-04,0.8500000238418579,0.6734005212783813,0.6734005212783813
416,0.9900000095367432,0.02654675953090191,0.02654675953090191,1e-04,0.8500000238418579,0.6754308938980103,0.6754308938980103
417,0.9800000190734863,0.03335027024149895,0.03335027024149895,1e-04,0.8500000238418579,0.6781103014945984,0.6781103014945984
418,1.0,0.019576791673898697,0.019576791673898697,1e-04,0.8500000238418579,0.681449830532074,0.681449830532074
419,0.9700000286102295,0.05037270858883858,0.05037270858883858,1e-04,0.8500000238418579,0.6833376884460449,0.6833376884460449
420,0.9900000095367432,0.02043812721967697,0.02043812721967697,1e-04,0.8500000238418579,0.6849021315574646,0.6849021315574646
421,0.9900000095367432,0.03990861028432846,0.03990861028432846,1e-04,0.8500000238418579,0.6871787309646606,0.6871787309646606
422,0.9700000286102295,0.0873171016573906,0.0873171016573906,1e-04,0.8500000238418579,0.6886447668075562,0.6886447668075562
423,0.9900000095367432,0.030132198706269264,0.030132198706269264,1e-04,0.8500000238418579,0.6890902519226074,0.6890902519226074
424,0.9900000095367432,0.023237325251102448,0.023237325251102448,1e-04,0.8500000238418579,0.6914483904838562,0.6914483904838562
425,0.9599999785423279,0.06404262036085129,0.06404262036085129,1e-04,0.8500000238418579,0.6906435489654541,0.6906435489654541
426,0.9700000286102295,0.05089166760444641,0.05089166760444641,1e-04,0.8500000238418579,0.6859062314033508,0.6859062314033508
427,0.9900000095367432,0.023309538140892982,0.023309538140892982,1e-04,0.8500000238418579,0.6840727925300598,0.6840727925300598
428,1.0,0.01447666622698307,0.01447666622698307,1e-04,0.8500000238418579,0.6831632852554321,0.6831632852554321
429,1.0,0.022016150876879692,0.022016150876879692,1e-04,0.8500000238418579,0.6826621294021606,0.6826621294021606
430,0.9800000190734863,0.04818873852491379,0.04818873852491379,1e-04,0.8500000238418579,0.6858490705490112,0.6858490705490112
431,0.9800000190734863,0.032973140478134155,0.032973140478134155,1e-04,0.8399999737739563,0.6911974549293518,0.6911974549293518
432,0.9900000095367432,0.03247487545013428,0.03247487545013428,1e-04,0.8299999833106995,0.6940988898277283,0.6940988898277283
433,0.9700000286102295,0.08778943866491318,0.08778943866491318,1e-04,0.8299999833106995,0.6938315629959106,0.6938315629959106
434,1.0,0.015640243887901306,0.015640243887901306,1e-04,0.8299999833106995,0.6938550472259521,0.6938550472259521
435,0.9900000095367432,0.030545121058821678,0.030545121058821678,1e-04,0.8299999833106995,0.694181501865387,0.694181501865387
436,0.9900000095367432,0.03731532394886017,0.03731532394886017,1e-04,0.8299999833106995,0.6955043077468872,0.6955043077468872
437,0.9800000190734863,0.028602730482816696,0.028602730482816696,1e-04,0.8299999833106995,0.6974987983703613,0.6974987983703613
438,1.0,0.017892392352223396,0.017892392352223396,1e-04,0.8299999833106995,0.696943998336792,0.696943998336792
439,0.9700000286102295,0.05234377086162567,0.05234377086162567,1e-04,0.8399999737739563,0.6927134990692139,0.6927134990692139
440,0.9700000286102295,0.06660731136798859,0.06660731136798859,1e-04,0.8399999737739563,0.6800978183746338,0.6800978183746338
441,0.9900000095367432,0.025954382494091988,0.025954382494091988,1e-04,0.8500000238418579,0.6692035794258118,0.6692035794258118
442,0.9900000095367432,0.03895220905542374,0.03895220905542374,1e-04,0.8500000238418579,0.6619158983230591,0.6619158983230591
443,0.9800000190734863,0.03131626918911934,0.03131626918911934,1e-04,0.8500000238418579,0.6591335535049438,0.6591335535049438
444,0.9900000095367432,0.028100766241550446,0.028100766241550446,1e-04,0.8500000238418579,0.6595212817192078,0.6595212817192078
445,1.0,0.021122362464666367,0.021122362464666367,1e-04,0.8399999737739563,0.6610475182533264,0.6610475182533264
446,1.0,0.01473765354603529,0.01473765354603529,1e-04,0.8500000238418579,0.6636453866958618,0.6636453866958618
447,1.0,0.02261010929942131,0.02261010929942131,1e-04,0.8500000238418579,0.6670638918876648,0.6670638918876648
448,0.9800000190734863,0.0337093360722065,0.0337093360722065,1e-04,0.8500000238418579,0.6721397638320923,0.6721397638320923
449,0.9900000095367432,0.04826865345239639,0.04826865345239639,1e-04,0.8399999737739563,0.6810476779937744,0.6810476779937744
450,0.9800000190734863,0.0461769662797451,0.0461769662797451,1e-04,0.8399999737739563,0.6898200511932373,0.6898200511932373
451,0.9800000190734863,0.02643306739628315,0.02643306739628315,1e-04,0.8299999833106995,0.698432981967926,0.698432981967926
452,0.9900000095367432,0.03893948346376419,0.03893948346376419,1e-04,0.8299999833106995,0.7025392055511475,0.7025392055511475
453,0.9900000095367432,0.026421410962939262,0.026421410962939262,1e-04,0.8299999833106995,0.703837513923645,0.703837513923645
454,0.9800000190734863,0.033434417098760605,0.033434417098760605,1e-04,0.8299999833106995,0.7049323320388794,0.7049323320388794
455,0.9900000095367432,0.0195347648113966,0.0195347648113966,1e-04,0.8299999833106995,0.7085965871810913,0.7085965871810913
456,0.9800000190734863,0.08288238197565079,0.08288238197565079,1e-04,0.8299999833106995,0.7056170105934143,0.7056170105934143
457,0.9800000190734863,0.06766662746667862,0.06766662746667862,1e-04,0.8299999833106995,0.7028138041496277,0.7028138041496277
458,0.9800000190734863,0.10161519050598145,0.10161519050598145,1e-04,0.8399999737739563,0.6949484944343567,0.6949484944343567
459,0.9800000190734863,0.0555758997797966,0.0555758997797966,1e-04,0.8399999737739563,0.6838713884353638,0.6838713884353638
460,1.0,0.014243841171264648,0.014243841171264648,1e-04,0.8500000238418579,0.6760205030441284,0.6760205030441284
461,0.9800000190734863,0.03080112859606743,0.03080112859606743,1e-04,0.8399999737739563,0.6710267066955566,0.6710267066955566
462,0.9900000095367432,0.02847786620259285,0.02847786620259285,1e-04,0.8399999737739563,0.6681139469146729,0.6681139469146729
463,0.9800000190734863,0.060148581862449646,0.060148581862449646,1e-04,0.8500000238418579,0.6665948629379272,0.6665948629379272
464,1.0,0.017742011696100235,0.017742011696100235,1e-04,0.8600000143051147,0.6661350727081299,0.6661350727081299
465,0.9900000095367432,0.01607983373105526,0.01607983373105526,1e-04,0.8600000143051147,0.666025698184967,0.666025698184967
466,0.9700000286102295,0.03774939477443695,0.03774939477443695,1e-04,0.8700000047683716,0.6667919754981995,0.6667919754981995
467,0.9800000190734863,0.031979113817214966,0.031979113817214966,1e-04,0.8700000047683716,0.6683878302574158,0.6683878302574158
468,0.9800000190734863,0.09229118376970291,0.09229118376970291,1e-04,0.8600000143051147,0.6688231825828552,0.6688231825828552
469,0.9599999785423279,0.05582217872142792,0.05582217872142792,1e-04,0.8399999737739563,0.6720870137214661,0.6720870137214661
470,0.9900000095367432,0.016528857871890068,0.016528857871890068,1e-04,0.8399999737739563,0.6792266964912415,0.6792266964912415
471,1.0,0.015024250373244286,0.015024250373244286,1e-04,0.8399999737739563,0.6896362900733948,0.6896362900733948
472,1.0,0.00708753103390336,0.00708753103390336,1e-04,0.8399999737739563,0.7015863656997681,0.7015863656997681
473,0.9900000095367432,0.022827988490462303,0.022827988490462303,1e-04,0.8299999833106995,0.7117908000946045,0.7117908000946045
474,1.0,0.018181918188929558,0.018181918188929558,1e-04,0.8299999833106995,0.7190995216369629,0.7190995216369629
475,0.9900000095367432,0.04232671111822128,0.04232671111822128,1e-04,0.8299999833106995,0.7244311571121216,0.7244311571121216
476,1.0,0.020595144480466843,0.020595144480466843,1e-04,0.8299999833106995,0.7262428402900696,0.7262428402900696
477,0.9800000190734863,0.07723169028759003,0.07723169028759003,1e-04,0.8299999833106995,0.7202581763267517,0.7202581763267517
478,0.9800000190734863,0.059652913361787796,0.059652913361787796,1e-04,0.8399999737739563,0.7124203443527222,0.7124203443527222
479,1.0,0.007170551922172308,0.007170551922172308,1e-04,0.8399999737739563,0.7062682509422302,0.7062682509422302
480,1.0,0.010484334081411362,0.010484334081411362,1e-04,0.8399999737739563,0.7012223601341248,0.7012223601341248
481,0.9900000095367432,0.03688494861125946,0.03688494861125946,1e-04,0.8299999833106995,0.6976898908615112,0.6976898908615112
482,1.0,0.014077847823500633,0.014077847823500633,1e-04,0.8299999833106995,0.6948287487030029,0.6948287487030029
483,0.9700000286102295,0.11154648661613464,0.11154648661613464,1e-04,0.8399999737739563,0.6932825446128845,0.6932825446128845
484,1.0,0.009172278456389904,0.009172278456389904,1e-04,0.8399999737739563,0.6928764581680298,0.6928764581680298
485,0.9800000190734863,0.05059824138879776,0.05059824138879776,1e-04,0.8399999737739563,0.6930477023124695,0.6930477023124695
486,0.9800000190734863,0.05912155658006668,0.05912155658006668,1e-04,0.8399999737739563,0.6920544505119324,0.6920544505119324
487,1.0,0.015164695680141449,0.015164695680141449,1e-04,0.8399999737739563,0.6923359632492065,0.6923359632492065
488,1.0,0.01669844053685665,0.01669844053685665,1e-04,0.8399999737739563,0.6934351921081543,0.6934351921081543
489,0.9900000095367432,0.03722720965743065,0.03722720965743065,1e-04,0.8399999737739563,0.696571409702301,0.696571409702301
490,0.9700000286102295,0.06719288975000381,0.06719288975000381,1e-04,0.8399999737739563,0.700019359588623,0.700019359588623
491,0.9900000095367432,0.035614144057035446,0.035614144057035446,1e-04,0.8399999737739563,0.7047388553619385,0.7047388553619385
492,0.9700000286102295,0.05706901475787163,0.05706901475787163,1e-04,0.8399999737739563,0.7083137631416321,0.7083137631416321
493,1.0,0.005583545658737421,0.005583545658737421,1e-04,0.8399999737739563,0.7126840949058533,0.7126840949058533
494,0.9700000286102295,0.043340038508176804,0.043340038508176804,1e-04,0.8399999737739563,0.7158322334289551,0.7158322334289551
495,1.0,0.01105403807014227,0.01105403807014227,1e-04,0.8399999737739563,0.720274806022644,0.720274806022644
496,1.0,0.014745098538696766,0.014745098538696766,1e-04,0.8399999737739563,0.7256384491920471,0.7256384491920471
497,0.9700000286102295,0.06016463413834572,0.06016463413834572,1e-04,0.8399999737739563,0.7254054546356201,0.7254054546356201
498,0.9900000095367432,0.02262507751584053,0.02262507751584053,1e-04,0.8399999737739563,0.7239832282066345,0.7239832282066345
499,1.0,0.010322107002139091,0.010322107002139091,1e-04,0.8399999737739563,0.7227001190185547,0.7227001190185547
500,0.9900000095367432,0.030178196728229523,0.030178196728229523,1e-04,0.8399999737739563,0.7226183414459229,0.7226183414459229
501,0.9900000095367432,0.01986810751259327,0.01986810751259327,1e-04,0.8399999737739563,0.7229034900665283,0.7229034900665283
502,0.9900000095367432,0.023831188678741455,0.023831188678741455,1e-04,0.8399999737739563,0.7203415036201477,0.7203415036201477
503,0.9900000095367432,0.03906862810254097,0.03906862810254097,1e-04,0.8399999737739563,0.7174004316329956,0.7174004316329956
504,0.9800000190734863,0.03120505064725876,0.03120505064725876,1e-04,0.8399999737739563,0.7158300280570984,0.7158300280570984
505,0.9800000190734863,0.06918574869632721,0.06918574869632721,1e-04,0.8299999833106995,0.7141622304916382,0.7141622304916382
506,0.9800000190734863,0.02541535347700119,0.02541535347700119,1e-04,0.8299999833106995,0.714211642742157,0.714211642742157
507,1.0,0.026098154485225677,0.026098154485225677,1e-04,0.8299999833106995,0.7144960165023804,0.7144960165023804
508,0.9900000095367432,0.02672419510781765,0.02672419510781765,1e-04,0.8299999833106995,0.7134371995925903,0.7134371995925903
509,0.9900000095367432,0.019269365817308426,0.019269365817308426,1e-04,0.8299999833106995,0.7132694721221924,0.7132694721221924
510,1.0,0.016765423119068146,0.016765423119068146,1e-04,0.8299999833106995,0.7148758172988892,0.7148758172988892
511,0.9800000190734863,0.035964418202638626,0.035964418202638626,1e-04,0.8299999833106995,0.7150430083274841,0.7150430083274841
512,0.9599999785423279,0.08804434537887573,0.08804434537887573,1e-04,0.8299999833106995,0.7183974981307983,0.7183974981307983
513,1.0,0.009957480244338512,0.009957480244338512,1e-04,0.8299999833106995,0.7213181257247925,0.7213181257247925
514,1.0,0.015855619683861732,0.015855619683861732,1e-04,0.8399999737739563,0.7258937358856201,0.7258937358856201
515,0.9700000286102295,0.05742118880152702,0.05742118880152702,1e-04,0.8399999737739563,0.7297202944755554,0.7297202944755554
516,0.9700000286102295,0.06455177068710327,0.06455177068710327,1e-04,0.8399999737739563,0.7353904843330383,0.7353904843330383
517,0.9900000095367432,0.026801560074090958,0.026801560074090958,1e-04,0.8399999737739563,0.741812527179718,0.741812527179718
518,1.0,0.014849024824798107,0.014849024824798107,1e-04,0.8399999737739563,0.745603621006012,0.745603621006012
519,0.9900000095367432,0.023057105019688606,0.023057105019688606,1e-04,0.8399999737739563,0.7448513507843018,0.7448513507843018
520,1.0,0.018545348197221756,0.018545348197221756,1e-04,0.8399999737739563,0.7412228584289551,0.7412228584289551
521,1.0,0.007107089273631573,0.007107089273631573,1e-04,0.8399999737739563,0.7376935482025146,0.7376935482025146
522,0.9800000190734863,0.026803376153111458,0.026803376153111458,1e-04,0.8399999737739563,0.7363212704658508,0.7363212704658508
523,0.9900000095367432,0.030338577926158905,0.030338577926158905,1e-04,0.8399999737739563,0.7368163466453552,0.7368163466453552
524,0.9700000286102295,0.07010915875434875,0.07010915875434875,1e-04,0.8399999737739563,0.7371003031730652,0.7371003031730652
525,1.0,0.013506817631423473,0.013506817631423473,1e-04,0.8500000238418579,0.739048182964325,0.739048182964325
526,1.0,0.03116694465279579,0.03116694465279579,1e-04,0.8500000238418579,0.7415063381195068,0.7415063381195068
527,0.9599999785423279,0.07221338152885437,0.07221338152885437,1e-04,0.8500000238418579,0.7407979369163513,0.7407979369163513
528,0.9900000095367432,0.029263639822602272,0.029263639822602272,1e-04,0.8500000238418579,0.7402206659317017,0.7402206659317017
529,0.9900000095367432,0.03099070116877556,0.03099070116877556,1e-04,0.8500000238418579,0.7418262362480164,0.7418262362480164
530,0.9900000095367432,0.02735794335603714,0.02735794335603714,1e-04,0.8399999737739563,0.7438530921936035,0.7438530921936035
531,0.9700000286102295,0.08688479661941528,0.08688479661941528,1e-04,0.8500000238418579,0.7394753098487854,0.7394753098487854
532,0.9800000190734863,0.08249588310718536,0.08249588310718536,1e-04,0.8500000238418579,0.7344485521316528,0.7344485521316528
533,1.0,0.016184920445084572,0.016184920445084572,1e-04,0.8500000238418579,0.7296237349510193,0.7296237349510193
534,0.9800000190734863,0.05765140429139137,0.05765140429139137,1e-04,0.8399999737739563,0.7225895524024963,0.7225895524024963
535,1.0,0.024285364896059036,0.024285364896059036,1e-04,0.8399999737739563,0.717241644859314,0.717241644859314
536,1.0,0.010916376486420631,0.010916376486420631,1e-04,0.8399999737739563,0.713367223739624,0.713367223739624
537,0.9599999785423279,0.05497751757502556,0.05497751757502556,1e-04,0.8399999737739563,0.7105374336242676,0.7105374336242676
538,1.0,0.014435995370149612,0.014435995370149612,1e-04,0.8399999737739563,0.707282304763794,0.707282304763794
539,0.9800000190734863,0.026213588193058968,0.026213588193058968,1e-04,0.8399999737739563,0.7071323394775391,0.7071323394775391
540,0.9700000286102295,0.05070018395781517,0.05070018395781517,1e-04,0.8299999833106995,0.7102243304252625,0.7102243304252625
541,0.9900000095367432,0.03186160698533058,0.03186160698533058,1e-04,0.8299999833106995,0.7176910638809204,0.7176910638809204
542,0.9800000190734863,0.02438582107424736,0.02438582107424736,1e-04,0.8299999833106995,0.7221242785453796,0.7221242785453796
543,0.9800000190734863,0.09450041502714157,0.09450041502714157,1e-04,0.8299999833106995,0.7209717631340027,0.7209717631340027
544,0.9800000190734863,0.059048671275377274,0.059048671275377274,1e-04,0.8299999833106995,0.7159259915351868,0.7159259915351868
545,0.9900000095367432,0.018984166905283928,0.018984166905283928,1e-04,0.8299999833106995,0.7116163372993469,0.7116163372993469
546,0.9900000095367432,0.028611183166503906,0.028611183166503906,1e-04,0.8299999833106995,0.7052356004714966,0.7052356004714966
547,1.0,0.02859402261674404,0.02859402261674404,1e-04,0.8399999737739563,0.7018426656723022,0.7018426656723022
548,1.0,0.015497688204050064,0.015497688204050064,1e-04,0.8399999737739563,0.69919753074646,0.69919753074646
549,0.9700000286102295,0.04232100397348404,0.04232100397348404,1e-04,0.8399999737739563,0.6980785131454468,0.6980785131454468
550,0.9900000095367432,0.02768401801586151,0.02768401801586151,1e-04,0.8399999737739563,0.6962331533432007,0.6962331533432007
551,0.9800000190734863,0.03981270641088486,0.03981270641088486,1e-04,0.8399999737739563,0.695854127407074,0.695854127407074
552,1.0,0.008447570726275444,0.008447570726275444,1e-04,0.8500000238418579,0.69623863697052,0.69623863697052
553,0.9900000095367432,0.02033492550253868,0.02033492550253868,1e-04,0.8399999737739563,0.6970432996749878,0.6970432996749878
554,0.9800000190734863,0.023484066128730774,0.023484066128730774,1e-04,0.8399999737739563,0.6984493136405945,0.6984493136405945
555,1.0,0.006989123299717903,0.006989123299717903,1e-04,0.8399999737739563,0.7001410722732544,0.7001410722732544
556,0.9900000095367432,0.05344279110431671,0.05344279110431671,1e-04,0.8399999737739563,0.7017151117324829,0.7017151117324829
557,0.9900000095367432,0.014636690728366375,0.014636690728366375,1e-04,0.8399999737739563,0.7048143744468689,0.7048143744468689
558,0.9900000095367432,0.03161824494600296,0.03161824494600296,1e-04,0.8299999833106995,0.7076483964920044,0.7076483964920044
559,0.9900000095367432,0.023861518129706383,0.023861518129706383,1e-04,0.8299999833106995,0.7080995440483093,0.7080995440483093
560,0.9800000190734863,0.027001524344086647,0.027001524344086647,1e-04,0.8299999833106995,0.709522008895874,0.709522008895874
561,0.9900000095367432,0.052347611635923386,0.052347611635923386,1e-04,0.8299999833106995,0.715619683265686,0.715619683265686
562,0.9900000095367432,0.0482432022690773,0.0482432022690773,1e-04,0.8299999833106995,0.7178129553794861,0.7178129553794861
563,0.9800000190734863,0.036888428032398224,0.036888428032398224,1e-04,0.8299999833106995,0.7177649140357971,0.7177649140357971
564,0.9900000095367432,0.03349437192082405,0.03349437192082405,1e-04,0.8299999833106995,0.7159088253974915,0.7159088253974915
565,0.9800000190734863,0.05100775882601738,0.05100775882601738,1e-04,0.8399999737739563,0.7105473875999451,0.7105473875999451
566,0.9900000095367432,0.023792367428541183,0.023792367428541183,1e-04,0.8399999737739563,0.7087383270263672,0.7087383270263672
567,0.9700000286102295,0.06002425029873848,0.06002425029873848,1e-04,0.8399999737739563,0.7097765207290649,0.7097765207290649
568,1.0,0.013579359278082848,0.013579359278082848,1e-04,0.8399999737739563,0.7118179202079773,0.7118179202079773
569,0.9900000095367432,0.017837386578321457,0.017837386578321457,1e-04,0.8399999737739563,0.7142500877380371,0.7142500877380371
570,1.0,0.026858681812882423,0.026858681812882423,1e-04,0.8399999737739563,0.7166573405265808,0.7166573405265808
571,0.9900000095367432,0.03482801094651222,0.03482801094651222,1e-04,0.8399999737739563,0.7200330495834351,0.7200330495834351
572,1.0,0.01460986863821745,0.01460986863821745,1e-04,0.8299999833106995,0.7252864837646484,0.7252864837646484
573,0.9800000190734863,0.09149269014596939,0.09149269014596939,1e-04,0.8299999833106995,0.7346922159194946,0.7346922159194946
574,1.0,0.01237887516617775,0.01237887516617775,1e-04,0.8399999737739563,0.7447781562805176,0.7447781562805176
575,0.9700000286102295,0.08742573112249374,0.08742573112249374,1e-04,0.8399999737739563,0.7449567317962646,0.7449567317962646
576,0.9900000095367432,0.020960664376616478,0.020960664376616478,1e-04,0.8399999737739563,0.7440986633300781,0.7440986633300781
577,0.9900000095367432,0.020559703931212425,0.020559703931212425,1e-04,0.8399999737739563,0.7405430674552917,0.7405430674552917
578,0.9800000190734863,0.033755477517843246,0.033755477517843246,1e-04,0.8399999737739563,0.7371859550476074,0.7371859550476074
579,0.9900000095367432,0.03457486629486084,0.03457486629486084,1e-04,0.8399999737739563,0.7332727909088135,0.7332727909088135
580,0.9700000286102295,0.05330237001180649,0.05330237001180649,1e-04,0.8399999737739563,0.7296130657196045,0.7296130657196045
581,1.0,0.014197093434631824,0.014197093434631824,1e-04,0.8399999737739563,0.726535439491272,0.726535439491272
582,1.0,0.019046969711780548,0.019046969711780548,1e-04,0.8399999737739563,0.7216518521308899,0.7216518521308899
583,0.9700000286102295,0.07338365167379379,0.07338365167379379,1e-04,0.8399999737739563,0.7167009711265564,0.7167009711265564
584,0.9900000095367432,0.019887486472725868,0.019887486472725868,1e-04,0.8299999833106995,0.7138184905052185,0.7138184905052185
585,0.9900000095367432,0.04205986112356186,0.04205986112356186,1e-04,0.8299999833106995,0.7095431685447693,0.7095431685447693
586,1.0,0.016952358186244965,0.016952358186244965,1e-04,0.8399999737739563,0.7050923705101013,0.7050923705101013
587,1.0,0.015843883156776428,0.015843883156776428,1e-04,0.8399999737739563,0.7014303803443909,0.7014303803443909
588,0.9900000095367432,0.043810419738292694,0.043810419738292694,1e-04,0.8399999737739563,0.6995158195495605,0.6995158195495605
589,1.0,0.01973176747560501,0.01973176747560501,1e-04,0.8500000238418579,0.6983850598335266,0.6983850598335266
590,0.9700000286102295,0.04153699800372124,0.04153699800372124,1e-04,0.8500000238418579,0.698183000087738,0.698183000087738
591,0.9800000190734863,0.08695829659700394,0.08695829659700394,1e-04,0.8399999737739563,0.7010163068771362,0.7010163068771362
592,1.0,0.017797166481614113,0.017797166481614113,1e-04,0.8399999737739563,0.7054283618927002,0.7054283618927002
593,1.0,0.0079464977607131,0.0079464977607131,1e-04,0.8299999833106995,0.7107517123222351,0.7107517123222351
594,1.0,0.013725686818361282,0.013725686818361282,1e-04,0.8399999737739563,0.7179186940193176,0.7179186940193176
595,0.9900000095367432,0.023502258583903313,0.023502258583903313,1e-04,0.8399999737739563,0.7261213660240173,0.7261213660240173
596,0.9800000190734863,0.03289518505334854,0.03289518505334854,1e-04,0.8399999737739563,0.7316573262214661,0.7316573262214661
597,0.9700000286102295,0.059279486536979675,0.059279486536979675,1e-04,0.8399999737739563,0.7341848611831665,0.7341848611831665
598,0.9700000286102295,0.06105601415038109,0.06105601415038109,1e-04,0.8399999737739563,0.7397171258926392,0.7397171258926392
599,0.9700000286102295,0.07334740459918976,0.07334740459918976,1e-04,0.8399999737739563,0.7396390438079834,0.7396390438079834
600,0.9900000095367432,0.026613472029566765,0.026613472029566765,1e-04,0.8399999737739563,0.7369367480278015,0.7369367480278015
601,1.0,0.008463677018880844,0.008463677018880844,1e-04,0.8399999737739563,0.7342129349708557,0.7342129349708557
602,0.9900000095367432,0.04419645667076111,0.04419645667076111,1e-04,0.8399999737739563,0.72906494140625,0.72906494140625
603,0.9800000190734863,0.03554173931479454,0.03554173931479454,1e-04,0.8299999833106995,0.7236263751983643,0.7236263751983643
604,1.0,0.018232321366667747,0.018232321366667747,1e-04,0.8299999833106995,0.7169588208198547,0.7169588208198547
605,0.9700000286102295,0.05172642692923546,0.05172642692923546,1e-04,0.8299999833106995,0.7111977338790894,0.7111977338790894
606,1.0,0.011371745727956295,0.011371745727956295,1e-04,0.8399999737739563,0.7066910266876221,0.7066910266876221
607,1.0,0.019795797765254974,0.019795797765254974,1e-04,0.8399999737739563,0.704508364200592,0.704508364200592
608,0.9599999785423279,0.08536089956760406,0.08536089956760406,1e-04,0.8399999737739563,0.7036244869232178,0.7036244869232178
609,0.9900000095367432,0.01786671206355095,0.01786671206355095,1e-04,0.8399999737739563,0.703509509563446,0.703509509563446
610,0.9900000095367432,0.01635013148188591,0.01635013148188591,1e-04,0.8399999737739563,0.7033836841583252,0.7033836841583252
611,0.9800000190734863,0.06748197227716446,0.06748197227716446,1e-04,0.8399999737739563,0.7035170197486877,0.7035170197486877
612,0.9900000095367432,0.030537603422999382,0.030537603422999382,1e-04,0.8399999737739563,0.7047190070152283,0.7047190070152283
613,1.0,0.013997179456055164,0.013997179456055164,1e-04,0.8399999737739563,0.7065026760101318,0.7065026760101318
614,0.9900000095367432,0.024263108149170876,0.024263108149170876,1e-04,0.8399999737739563,0.7089692950248718,0.7089692950248718
615,1.0,0.004809160251170397,0.004809160251170397,1e-04,0.8399999737739563,0.711894690990448,0.711894690990448
616,0.9900000095367432,0.01728091575205326,0.01728091575205326,1e-04,0.8399999737739563,0.7166547179222107,0.7166547179222107
617,0.9800000190734863,0.03127877414226532,0.03127877414226532,1e-04,0.8299999833106995,0.7234951853752136,0.7234951853752136
618,1.0,0.012850964441895485,0.012850964441895485,1e-04,0.8299999833106995,0.7306517958641052,0.7306517958641052
619,1.0,0.012145048007369041,0.012145048007369041,1e-04,0.8299999833106995,0.735703706741333,0.735703706741333
620,0.9599999785423279,0.09960369020700455,0.09960369020700455,1e-04,0.8299999833106995,0.7350150346755981,0.7350150346755981
621,0.9900000095367432,0.029749995097517967,0.029749995097517967,1e-04,0.8199999928474426,0.7378761172294617,0.7378761172294617
622,0.9700000286102295,0.07463687658309937,0.07463687658309937,1e-04,0.8199999928474426,0.7410768866539001,0.7410768866539001
623,0.9900000095367432,0.03070647455751896,0.03070647455751896,1e-04,0.8199999928474426,0.7406509518623352,0.7406509518623352
624,1.0,0.012970894575119019,0.012970894575119019,1e-04,0.8199999928474426,0.739331066608429,0.739331066608429
625,0.9800000190734863,0.03322918340563774,0.03322918340563774,1e-04,0.8299999833106995,0.734108030796051,0.734108030796051
626,0.9800000190734863,0.037531737238168716,0.037531737238168716,1e-04,0.8299999833106995,0.7273728847503662,0.7273728847503662
627,0.9700000286102295,0.041915200650691986,0.041915200650691986,1e-04,0.8299999833106995,0.7252343893051147,0.7252343893051147
628,1.0,0.010328613221645355,0.010328613221645355,1e-04,0.8299999833106995,0.7228456735610962,0.7228456735610962
629,0.9800000190734863,0.02948925457894802,0.02948925457894802,1e-04,0.8299999833106995,0.7185398936271667,0.7185398936271667
630,0.9900000095367432,0.02831517532467842,0.02831517532467842,1e-04,0.8299999833106995,0.7144388556480408,0.7144388556480408
631,1.0,0.014316380955278873,0.014316380955278873,1e-04,0.8299999833106995,0.7102903723716736,0.7102903723716736
632,0.9900000095367432,0.013878507539629936,0.013878507539629936,1e-04,0.8399999737739563,0.706563413143158,0.706563413143158
633,1.0,0.008448394946753979,0.008448394946753979,1e-04,0.8399999737739563,0.7046148180961609,0.7046148180961609
634,1.0,0.013310584239661694,0.013310584239661694,1e-04,0.8399999737739563,0.7041768431663513,0.7041768431663513
635,0.9900000095367432,0.0262921042740345,0.0262921042740345,1e-04,0.8399999737739563,0.7047446370124817,0.7047446370124817
636,0.9700000286102295,0.06561286747455597,0.06561286747455597,1e-04,0.8399999737739563,0.7087959051132202,0.7087959051132202
637,0.9900000095367432,0.06476269662380219,0.06476269662380219,1e-04,0.8299999833106995,0.7139987349510193,0.7139987349510193
638,1.0,0.01342738512903452,0.01342738512903452,1e-04,0.8299999833106995,0.7200725078582764,0.7200725078582764
639,0.9900000095367432,0.028375711292028427,0.028375711292028427,1e-04,0.8299999833106995,0.7278434634208679,0.7278434634208679
640,1.0,0.011033131740987301,0.011033131740987301,1e-04,0.8399999737739563,0.7372565269470215,0.7372565269470215
641,1.0,0.006088757421821356,0.006088757421821356,1e-04,0.8299999833106995,0.7462409734725952,0.7462409734725952
642,0.9900000095367432,0.014719581231474876,0.014719581231474876,1e-04,0.8299999833106995,0.7514479756355286,0.7514479756355286
643,1.0,0.005680288188159466,0.005680288188159466,1e-04,0.8299999833106995,0.7559541463851929,0.7559541463851929
644,0.9700000286102295,0.0566791296005249,0.0566791296005249,1e-04,0.8299999833106995,0.7569791674613953,0.7569791674613953
645,0.9800000190734863,0.033604010939598083,0.033604010939598083,1e-04,0.8399999737739563,0.7513076066970825,0.7513076066970825
646,1.0,0.006100592203438282,0.006100592203438282,1e-04,0.8399999737739563,0.7462180256843567,0.7462180256843567
647,0.9800000190734863,0.05870413780212402,0.05870413780212402,1e-04,0.8399999737739563,0.743354082107544,0.743354082107544
648,1.0,0.021004166454076767,0.021004166454076767,1e-04,0.8399999737739563,0.7380074262619019,0.7380074262619019
649,0.9900000095367432,0.042366933077573776,0.042366933077573776,1e-04,0.8399999737739563,0.7325259447097778,0.7325259447097778
650,0.9700000286102295,0.05550253018736839,0.05550253018736839,1e-04,0.8399999737739563,0.7255366444587708,0.7255366444587708
651,1.0,0.009190084412693977,0.009190084412693977,1e-04,0.8399999737739563,0.7212250232696533,0.7212250232696533
652,0.9900000095367432,0.03132916986942291,0.03132916986942291,1e-04,0.8500000238418579,0.7181379795074463,0.7181379795074463
653,0.9800000190734863,0.041403867304325104,0.041403867304325104,1e-04,0.8500000238418579,0.7161548733711243,0.7161548733711243
654,0.9700000286102295,0.07915744185447693,0.07915744185447693,1e-04,0.8500000238418579,0.7148491740226746,0.7148491740226746
655,0.9900000095367432,0.03351261466741562,0.03351261466741562,1e-04,0.8500000238418579,0.7152442336082458,0.7152442336082458
656,0.9800000190734863,0.05152874439954758,0.05152874439954758,1e-04,0.8500000238418579,0.7194047570228577,0.7194047570228577
657,0.9900000095367432,0.030309027060866356,0.030309027060866356,1e-04,0.8399999737739563,0.7293271422386169,0.7293271422386169
658,0.9900000095367432,0.03585929796099663,0.03585929796099663,1e-04,0.8399999737739563,0.7449603080749512,0.7449603080749512
659,0.9900000095367432,0.02261069230735302,0.02261069230735302,1e-04,0.8399999737739563,0.7589209675788879,0.7589209675788879
660,1.0,0.025680391117930412,0.025680391117930412,1e-04,0.8399999737739563,0.7748906016349792,0.7748906016349792
661,1.0,0.012664547190070152,0.012664547190070152,1e-04,0.8399999737739563,0.7888215780258179,0.7888215780258179
662,1.0,0.005854587070643902,0.005854587070643902,1e-04,0.8399999737739563,0.801737904548645,0.801737904548645
663,0.9700000286102295,0.054165419191122055,0.054165419191122055,1e-04,0.8399999737739563,0.8008514642715454,0.8008514642715454
664,0.9900000095367432,0.014069351367652416,0.014069351367652416,1e-04,0.8399999737739563,0.7956041097640991,0.7956041097640991
665,1.0,0.006446013227105141,0.006446013227105141,1e-04,0.8399999737739563,0.7893324494361877,0.7893324494361877
666,0.9800000190734863,0.056179359555244446,0.056179359555244446,1e-04,0.8299999833106995,0.7737915515899658,0.7737915515899658
667,0.9900000095367432,0.07038083672523499,0.07038083672523499,1e-04,0.8299999833106995,0.7567127346992493,0.7567127346992493
668,0.9900000095367432,0.018925027921795845,0.018925027921795845,1e-04,0.8399999737739563,0.7431213855743408,0.7431213855743408
669,0.9900000095367432,0.02172047458589077,0.02172047458589077,1e-04,0.8399999737739563,0.7316915988922119,0.7316915988922119
670,0.9800000190734863,0.043516162782907486,0.043516162782907486,1e-04,0.8299999833106995,0.7188158631324768,0.7188158631324768
671,0.9800000190734863,0.04695916175842285,0.04695916175842285,1e-04,0.8399999737739563,0.7121720910072327,0.7121720910072327
672,0.9900000095367432,0.022932233288884163,0.022932233288884163,1e-04,0.8500000238418579,0.7086303234100342,0.7086303234100342
673,0.9800000190734863,0.025313301011919975,0.025313301011919975,1e-04,0.8500000238418579,0.7074840068817139,0.7074840068817139
674,0.9900000095367432,0.02808971144258976,0.02808971144258976,1e-04,0.8500000238418579,0.7073246836662292,0.7073246836662292
675,0.9599999785423279,0.06711666285991669,0.06711666285991669,1e-04,0.8500000238418579,0.7087830305099487,0.7087830305099487
676,0.9800000190734863,0.08122095465660095,0.08122095465660095,1e-04,0.8500000238418579,0.7098152041435242,0.7098152041435242
677,0.9800000190734863,0.059305980801582336,0.059305980801582336,1e-04,0.8299999833106995,0.715747594833374,0.715747594833374
678,0.9800000190734863,0.04233546555042267,0.04233546555042267,1e-04,0.8399999737739563,0.726015567779541,0.726015567779541
679,0.9800000190734863,0.03621948882937431,0.03621948882937431,1e-04,0.8299999833106995,0.740008533000946,0.740008533000946
680,1.0,0.013533750548958778,0.013533750548958778,1e-04,0.8299999833106995,0.7525048851966858,0.7525048851966858
681,0.9800000190734863,0.054487958550453186,0.054487958550453186,1e-04,0.8299999833106995,0.7594631314277649,0.7594631314277649
682,1.0,0.02675878442823887,0.02675878442823887,1e-04,0.8299999833106995,0.7597081065177917,0.7597081065177917
683,0.9700000286102295,0.0692843571305275,0.0692843571305275,1e-04,0.8299999833106995,0.7528005838394165,0.7528005838394165
684,0.9800000190734863,0.039065584540367126,0.039065584540367126,1e-04,0.8399999737739563,0.74298095703125,0.74298095703125
685,0.9900000095367432,0.030773432925343513,0.030773432925343513,1e-04,0.8399999737739563,0.7372986078262329,0.7372986078262329
686,1.0,0.014619261957705021,0.014619261957705021,1e-04,0.8299999833106995,0.735089123249054,0.735089123249054
687,1.0,0.01928270421922207,0.01928270421922207,1e-04,0.8299999833106995,0.7348251342773438,0.7348251342773438
688,1.0,0.01211586594581604,0.01211586594581604,1e-04,0.8399999737739563,0.7367731332778931,0.7367731332778931
689,0.9900000095367432,0.02763901650905609,0.02763901650905609,1e-04,0.8500000238418579,0.7401202321052551,0.7401202321052551
690,0.9800000190734863,0.026726458221673965,0.026726458221673965,1e-04,0.8500000238418579,0.7440029978752136,0.7440029978752136
691,0.9800000190734863,0.08272610604763031,0.08272610604763031,1e-04,0.8399999737739563,0.7491579651832581,0.7491579651832581
692,1.0,0.00894007459282875,0.00894007459282875,1e-04,0.8399999737739563,0.7546733021736145,0.7546733021736145
693,0.9900000095367432,0.036711741238832474,0.036711741238832474,1e-04,0.8399999737739563,0.7582538723945618,0.7582538723945618
694,0.9900000095367432,0.02606731653213501,0.02606731653213501,1e-04,0.8399999737739563,0.7616742849349976,0.7616742849349976
695,0.9700000286102295,0.06389492750167847,0.06389492750167847,1e-04,0.8399999737739563,0.7642157077789307,0.7642157077789307
696,0.9800000190734863,0.05025096982717514,0.05025096982717514,1e-04,0.8399999737739563,0.7655359506607056,0.7655359506607056
697,0.9800000190734863,0.04131956398487091,0.04131956398487091,1e-04,0.8399999737739563,0.7674500942230225,0.7674500942230225
698,1.0,0.016571078449487686,0.016571078449487686,1e-04,0.8399999737739563,0.7699146866798401,0.7699146866798401
699,0.9599999785423279,0.062292780727148056,0.062292780727148056,1e-04,0.8399999737739563,0.7755208611488342,0.7755208611488342
700,0.9800000190734863,0.037459682673215866,0.037459682673215866,1e-04,0.8500000238418579,0.7846670746803284,0.7846670746803284
701,1.0,0.017630822956562042,0.017630822956562042,1e-04,0.8500000238418579,0.7960493564605713,0.7960493564605713
702,0.9900000095367432,0.023901745676994324,0.023901745676994324,1e-04,0.8399999737739563,0.8049258589744568,0.8049258589744568
703,0.9900000095367432,0.02227012626826763,0.02227012626826763,1e-04,0.8399999737739563,0.811277449131012,0.811277449131012
704,0.9599999785423279,0.09976039826869965,0.09976039826869965,1e-04,0.8399999737739563,0.8095106482505798,0.8095106482505798
705,0.9800000190734863,0.051091793924570084,0.051091793924570084,1e-04,0.8399999737739563,0.802155077457428,0.802155077457428
706,0.9800000190734863,0.046179309487342834,0.046179309487342834,1e-04,0.8500000238418579,0.7935716509819031,0.7935716509819031
707,0.9900000095367432,0.026592332869768143,0.026592332869768143,1e-04,0.8399999737739563,0.7850549221038818,0.7850549221038818
708,1.0,0.004550935700535774,0.004550935700535774,1e-04,0.8399999737739563,0.7784009575843811,0.7784009575843811
709,0.9900000095367432,0.025873607024550438,0.025873607024550438,1e-04,0.8399999737739563,0.7720633149147034,0.7720633149147034
710,1.0,0.014607020653784275,0.014607020653784275,1e-04,0.8399999737739563,0.7689341902732849,0.7689341902732849
711,0.9900000095367432,0.015207064338028431,0.015207064338028431,1e-04,0.8399999737739563,0.7675696015357971,0.7675696015357971
712,0.9900000095367432,0.021288009360432625,0.021288009360432625,1e-04,0.8399999737739563,0.767167329788208,0.767167329788208
713,1.0,0.01774209551513195,0.01774209551513195,1e-04,0.8399999737739563,0.7671375274658203,0.7671375274658203
714,0.9900000095367432,0.034586481750011444,0.034586481750011444,1e-04,0.8399999737739563,0.764936089515686,0.764936089515686
715,0.9599999785423279,0.07006409764289856,0.07006409764289856,1e-04,0.8399999737739563,0.7631332278251648,0.7631332278251648
716,0.9700000286102295,0.08766535669565201,0.08766535669565201,1e-04,0.8399999737739563,0.7634154558181763,0.7634154558181763
717,1.0,0.014569657854735851,0.014569657854735851,1e-04,0.8399999737739563,0.7645944356918335,0.7645944356918335
718,1.0,0.017566611990332603,0.017566611990332603,1e-04,0.8399999737739563,0.7668846249580383,0.7668846249580383
719,0.9900000095367432,0.01261124573647976,0.01261124573647976,1e-04,0.8399999737739563,0.7689026594161987,0.7689026594161987
720,1.0,0.008915242739021778,0.008915242739021778,1e-04,0.8399999737739563,0.7707908749580383,0.7707908749580383
721,1.0,0.009197422303259373,0.009197422303259373,1e-04,0.8399999737739563,0.771871030330658,0.771871030330658
722,0.9800000190734863,0.06032108888030052,0.06032108888030052,1e-04,0.8399999737739563,0.7695753574371338,0.7695753574371338
723,0.9800000190734863,0.02671552635729313,0.02671552635729313,1e-04,0.8399999737739563,0.7640309929847717,0.7640309929847717
724,0.9900000095367432,0.07976246625185013,0.07976246625185013,1e-04,0.8399999737739563,0.7608782052993774,0.7608782052993774
725,0.9700000286102295,0.083963543176651,0.083963543176651,1e-04,0.8399999737739563,0.7569794654846191,0.7569794654846191
726,0.9900000095367432,0.026999855414032936,0.026999855414032936,1e-04,0.8399999737739563,0.7538506984710693,0.7538506984710693
727,0.9900000095367432,0.030477048829197884,0.030477048829197884,1e-04,0.8399999737739563,0.7500293254852295,0.7500293254852295
728,1.0,0.013624352402985096,0.013624352402985096,1e-04,0.8399999737739563,0.7462201118469238,0.7462201118469238
729,0.9599999785423279,0.04813443496823311,0.04813443496823311,1e-04,0.8399999737739563,0.7437875270843506,0.7437875270843506
730,0.9800000190734863,0.04489954560995102,0.04489954560995102,1e-04,0.8399999737739563,0.738457441329956,0.738457441329956
731,0.9800000190734863,0.04112217575311661,0.04112217575311661,1e-04,0.8399999737739563,0.732086181640625,0.732086181640625
732,0.9900000095367432,0.03691359981894493,0.03691359981894493,1e-04,0.8399999737739563,0.7279760241508484,0.7279760241508484
733,0.9800000190734863,0.046815190464258194,0.046815190464258194,1e-04,0.8399999737739563,0.7261485457420349,0.7261485457420349
734,0.9800000190734863,0.033965814858675,0.033965814858675,1e-04,0.8399999737739563,0.725583553314209,0.725583553314209
735,0.949999988079071,0.12219783663749695,0.12219783663749695,1e-04,0.8399999737739563,0.7260382175445557,0.7260382175445557
736,0.9900000095367432,0.019033128395676613,0.019033128395676613,1e-04,0.8399999737739563,0.7288208603858948,0.7288208603858948
737,0.9900000095367432,0.03852071985602379,0.03852071985602379,1e-04,0.8299999833106995,0.7318832278251648,0.7318832278251648
738,1.0,0.010264587588608265,0.010264587588608265,1e-04,0.8399999737739563,0.7358652353286743,0.7358652353286743
739,1.0,0.011647623963654041,0.011647623963654041,1e-04,0.8399999737739563,0.7397692799568176,0.7397692799568176
740,0.9800000190734863,0.028936205431818962,0.028936205431818962,1e-04,0.8399999737739563,0.7435640096664429,0.7435640096664429
741,1.0,0.008327972143888474,0.008327972143888474,1e-04,0.8399999737739563,0.7474741339683533,0.7474741339683533
742,0.9900000095367432,0.012796815484762192,0.012796815484762192,1e-04,0.8399999737739563,0.7506274580955505,0.7506274580955505
743,0.9900000095367432,0.023686427623033524,0.023686427623033524,1e-04,0.8399999737739563,0.7502195835113525,0.7502195835113525
744,0.9700000286102295,0.07174555212259293,0.07174555212259293,1e-04,0.8399999737739563,0.7518441677093506,0.7518441677093506
745,0.9800000190734863,0.025720011442899704,0.025720011442899704,1e-04,0.8399999737739563,0.7510294914245605,0.7510294914245605
746,0.9900000095367432,0.023974571377038956,0.023974571377038956,1e-04,0.8399999737739563,0.7490946054458618,0.7490946054458618
747,0.9800000190734863,0.1399366706609726,0.1399366706609726,1e-04,0.8500000238418579,0.7465171813964844,0.7465171813964844
748,0.9800000190734863,0.08421912044286728,0.08421912044286728,1e-04,0.8399999737739563,0.744892954826355,0.744892954826355
749,1.0,0.023748550564050674,0.023748550564050674,1e-04,0.8399999737739563,0.7427797913551331,0.7427797913551331
750,0.9800000190734863,0.03237822651863098,0.03237822651863098,1e-04,0.8399999737739563,0.744411826133728,0.744411826133728
751,0.9900000095367432,0.029827211052179337,0.029827211052179337,1e-04,0.8399999737739563,0.7475242018699646,0.7475242018699646
752,1.0,0.004148936364799738,0.004148936364799738,1e-04,0.8399999737739563,0.7506558895111084,0.7506558895111084
753,0.9800000190734863,0.03613731637597084,0.03613731637597084,1e-04,0.8399999737739563,0.7536007761955261,0.7536007761955261
754,0.9599999785423279,0.05054245889186859,0.05054245889186859,1e-04,0.8399999737739563,0.7580163478851318,0.7580163478851318
755,1.0,0.01036632526665926,0.01036632526665926,1e-04,0.8399999737739563,0.7632836699485779,0.7632836699485779
756,0.9800000190734863,0.05643098056316376,0.05643098056316376,1e-04,0.8500000238418579,0.7712130546569824,0.7712130546569824
757,0.9900000095367432,0.019532684236764908,0.019532684236764908,1e-04,0.8399999737739563,0.7801864743232727,0.7801864743232727
758,1.0,0.01271207258105278,0.01271207258105278,1e-04,0.8399999737739563,0.7893145084381104,0.7893145084381104
759,0.9800000190734863,0.03546224907040596,0.03546224907040596,1e-04,0.8399999737739563,0.7987847924232483,0.7987847924232483
760,0.9900000095367432,0.035592030733823776,0.035592030733823776,1e-04,0.8399999737739563,0.8011206984519958,0.8011206984519958
761,0.9800000190734863,0.04761534184217453,0.04761534184217453,1e-04,0.8399999737739563,0.7973113059997559,0.7973113059997559
762,0.9800000190734863,0.04405173659324646,0.04405173659324646,1e-04,0.8399999737739563,0.7963320016860962,0.7963320016860962
763,0.9900000095367432,0.03199351951479912,0.03199351951479912,1e-04,0.8399999737739563,0.7952046990394592,0.7952046990394592
764,0.9599999785423279,0.06962121278047562,0.06962121278047562,1e-04,0.8399999737739563,0.7881504893302917,0.7881504893302917
765,0.9900000095367432,0.023930901661515236,0.023930901661515236,1e-04,0.8399999737739563,0.7791679501533508,0.7791679501533508
766,0.9700000286102295,0.05617271363735199,0.05617271363735199,1e-04,0.8500000238418579,0.7668713331222534,0.7668713331222534
767,1.0,0.005385799799114466,0.005385799799114466,1e-04,0.8500000238418579,0.758673906326294,0.758673906326294
768,1.0,0.00829816609621048,0.00829816609621048,1e-04,0.8399999737739563,0.753420889377594,0.753420889377594
769,0.9900000095367432,0.038501206785440445,0.038501206785440445,1e-04,0.8399999737739563,0.7504669427871704,0.7504669427871704
770,0.9800000190734863,0.03248712420463562,0.03248712420463562,1e-04,0.8399999737739563,0.748806357383728,0.748806357383728
771,0.9900000095367432,0.01450416911393404,0.01450416911393404,1e-04,0.8500000238418579,0.7485824823379517,0.7485824823379517
772,0.9900000095367432,0.017258621752262115,0.017258621752262115,1e-04,0.8500000238418579,0.7487456798553467,0.7487456798553467
773,1.0,0.014387811534106731,0.014387811534106731,1e-04,0.8500000238418579,0.7486377954483032,0.7486377954483032
774,1.0,0.022877071052789688,0.022877071052789688,1e-04,0.8399999737739563,0.7483898997306824,0.7483898997306824
775,0.9800000190734863,0.04756944999098778,0.04756944999098778,1e-04,0.8399999737739563,0.7501732110977173,0.7501732110977173
776,1.0,0.01710379496216774,0.01710379496216774,1e-04,0.8399999737739563,0.7547422647476196,0.7547422647476196
777,0.9900000095367432,0.022379567846655846,0.022379567846655846,1e-04,0.8399999737739563,0.7630576491355896,0.7630576491355896
778,0.9900000095367432,0.02137228287756443,0.02137228287756443,1e-04,0.8399999737739563,0.7717397212982178,0.7717397212982178
779,0.9900000095367432,0.018562383949756622,0.018562383949756622,1e-04,0.8399999737739563,0.7780928015708923,0.7780928015708923
780,1.0,0.005685655400156975,0.005685655400156975,1e-04,0.8399999737739563,0.7843913435935974,0.7843913435935974
781,0.9700000286102295,0.06278242915868759,0.06278242915868759,1e-04,0.8399999737739563,0.7853971123695374,0.7853971123695374
782,0.9700000286102295,0.05225680395960808,0.05225680395960808,1e-04,0.8399999737739563,0.7818546891212463,0.7818546891212463
783,0.9900000095367432,0.045528706163167953,0.045528706163167953,1e-04,0.8399999737739563,0.7796797752380371,0.7796797752380371
784,0.9900000095367432,0.03633594140410423,0.03633594140410423,1e-04,0.8399999737739563,0.7750471234321594,0.7750471234321594
785,0.9700000286102295,0.05856215953826904,0.05856215953826904,1e-04,0.8399999737739563,0.770952582359314,0.770952582359314
786,1.0,0.015086374245584011,0.015086374245584011,1e-04,0.8399999737739563,0.7676841616630554,0.7676841616630554
787,1.0,0.014496810734272003,0.014496810734272003,1e-04,0.8399999737739563,0.7633746862411499,0.7633746862411499
788,1.0,0.009397804737091064,0.009397804737091064,1e-04,0.8299999833106995,0.7585220336914062,0.7585220336914062
789,0.9900000095367432,0.025085434317588806,0.025085434317588806,1e-04,0.8299999833106995,0.7531687021255493,0.7531687021255493
790,0.9800000190734863,0.051842208951711655,0.051842208951711655,1e-04,0.8299999833106995,0.7494844198226929,0.7494844198226929
791,0.9900000095367432,0.029577819630503654,0.029577819630503654,1e-04,0.8299999833106995,0.7453450560569763,0.7453450560569763
792,0.9800000190734863,0.08839236199855804,0.08839236199855804,1e-04,0.8500000238418579,0.7372426390647888,0.7372426390647888
793,0.9900000095367432,0.016738351434469223,0.016738351434469223,1e-04,0.8500000238418579,0.7318645715713501,0.7318645715713501
794,1.0,0.01439669169485569,0.01439669169485569,1e-04,0.8500000238418579,0.7288259863853455,0.7288259863853455
795,0.9900000095367432,0.02049577236175537,0.02049577236175537,1e-04,0.8500000238418579,0.726631760597229,0.726631760597229
796,0.9900000095367432,0.01803346909582615,0.01803346909582615,1e-04,0.8500000238418579,0.725542426109314,0.725542426109314
797,1.0,0.008131150156259537,0.008131150156259537,1e-04,0.8500000238418579,0.7250914573669434,0.7250914573669434
798,0.9800000190734863,0.04656297340989113,0.04656297340989113,1e-04,0.8500000238418579,0.7255799174308777,0.7255799174308777
799,1.0,0.022914767265319824,0.022914767265319824,1e-04,0.8500000238418579,0.7261207699775696,0.7261207699775696
800,0.9900000095367432,0.019494647160172462,0.019494647160172462,1e-04,0.8500000238418579,0.7263046503067017,0.7263046503067017
801,0.9900000095367432,0.038135044276714325,0.038135044276714325,1e-04,0.8500000238418579,0.728239893913269,0.728239893913269
802,0.9900000095367432,0.037376366555690765,0.037376366555690765,1e-04,0.8500000238418579,0.7291238307952881,0.7291238307952881
803,1.0,0.021380076184868813,0.021380076184868813,1e-04,0.8399999737739563,0.7317827343940735,0.7317827343940735
804,1.0,0.004378870129585266,0.004378870129585266,1e-04,0.8399999737739563,0.7342445850372314,0.7342445850372314
805,1.0,0.015115190297365189,0.015115190297365189,1e-04,0.8399999737739563,0.7365250587463379,0.7365250587463379
806,1.0,0.008204557001590729,0.008204557001590729,1e-04,0.8399999737739563,0.7382299900054932,0.7382299900054932
807,0.9900000095367432,0.035848069936037064,0.035848069936037064,1e-04,0.8399999737739563,0.7404298186302185,0.7404298186302185
808,0.9900000095367432,0.027345364913344383,0.027345364913344383,1e-04,0.8399999737739563,0.7413648962974548,0.7413648962974548
809,0.9900000095367432,0.02722698263823986,0.02722698263823986,1e-04,0.8399999737739563,0.744088351726532,0.744088351726532
810,0.9800000190734863,0.029670093208551407,0.029670093208551407,1e-04,0.8299999833106995,0.747294008731842,0.747294008731842
811,0.9800000190734863,0.025872912257909775,0.025872912257909775,1e-04,0.8299999833106995,0.7501747608184814,0.7501747608184814
812,0.9900000095367432,0.03656940162181854,0.03656940162181854,1e-04,0.8299999833106995,0.7499696612358093,0.7499696612358093
813,0.9800000190734863,0.026156490668654442,0.026156490668654442,1e-04,0.8299999833106995,0.7495079040527344,0.7495079040527344
814,0.9900000095367432,0.09497469663619995,0.09497469663619995,1e-04,0.8299999833106995,0.7470346093177795,0.7470346093177795
815,1.0,0.008942309767007828,0.008942309767007828,1e-04,0.8299999833106995,0.7457096576690674,0.7457096576690674
816,1.0,0.014158390462398529,0.014158390462398529,1e-04,0.8299999833106995,0.7464773654937744,0.7464773654937744
817,1.0,0.0050095198675990105,0.0050095198675990105,1e-04,0.8299999833106995,0.7473356127738953,0.7473356127738953
818,0.9900000095367432,0.023432033136487007,0.023432033136487007,1e-04,0.8299999833106995,0.7494536638259888,0.7494536638259888
819,0.9800000190734863,0.03319033980369568,0.03319033980369568,1e-04,0.8299999833106995,0.7536525130271912,0.7536525130271912
820,0.9800000190734863,0.046569958329200745,0.046569958329200745,1e-04,0.8399999737739563,0.7562304735183716,0.7562304735183716
821,1.0,0.01305895484983921,0.01305895484983921,1e-04,0.8399999737739563,0.7589682936668396,0.7589682936668396
822,0.9900000095367432,0.04263661801815033,0.04263661801815033,1e-04,0.8399999737739563,0.7666094899177551,0.7666094899177551
823,1.0,0.013674367219209671,0.013674367219209671,1e-04,0.8399999737739563,0.7734626531600952,0.7734626531600952
824,0.9900000095367432,0.01527431607246399,0.01527431607246399,1e-04,0.8399999737739563,0.7795470356941223,0.7795470356941223
825,0.9800000190734863,0.038127195090055466,0.038127195090055466,1e-04,0.8399999737739563,0.7821757793426514,0.7821757793426514
826,0.9700000286102295,0.06582468748092651,0.06582468748092651,1e-04,0.8399999737739563,0.7846853137016296,0.7846853137016296
827,0.9800000190734863,0.04315037652850151,0.04315037652850151,1e-04,0.8399999737739563,0.7810540199279785,0.7810540199279785
828,1.0,0.0046556307934224606,0.0046556307934224606,1e-04,0.8399999737739563,0.7779382467269897,0.7779382467269897
829,0.9700000286102295,0.0714501217007637,0.0714501217007637,1e-04,0.8500000238418579,0.7683720588684082,0.7683720588684082
830,0.9800000190734863,0.05532586947083473,0.05532586947083473,1e-04,0.8500000238418579,0.762767493724823,0.762767493724823
831,0.9900000095367432,0.015998996794223785,0.015998996794223785,1e-04,0.8399999737739563,0.7599553465843201,0.7599553465843201
832,1.0,0.006926442496478558,0.006926442496478558,1e-04,0.8399999737739563,0.7571525573730469,0.7571525573730469
833,0.9800000190734863,0.05767159163951874,0.05767159163951874,1e-04,0.8399999737739563,0.7553714513778687,0.7553714513778687
834,1.0,0.006063499487936497,0.006063499487936497,1e-04,0.8399999737739563,0.7543054819107056,0.7543054819107056
835,0.9900000095367432,0.032554928213357925,0.032554928213357925,1e-04,0.8399999737739563,0.7540220022201538,0.7540220022201538
836,1.0,0.02389214001595974,0.02389214001595974,1e-04,0.8399999737739563,0.7543253302574158,0.7543253302574158
837,0.9900000095367432,0.02210894785821438,0.02210894785821438,1e-04,0.8399999737739563,0.7523184418678284,0.7523184418678284
838,1.0,0.019741779193282127,0.019741779193282127,1e-04,0.8399999737739563,0.7508902549743652,0.7508902549743652
839,1.0,0.009285084903240204,0.009285084903240204,1e-04,0.8399999737739563,0.7502644062042236,0.7502644062042236
840,1.0,0.0036773839965462685,0.0036773839965462685,1e-04,0.8399999737739563,0.749413251876831,0.749413251876831
841,0.9900000095367432,0.02315228059887886,0.02315228059887886,1e-04,0.8399999737739563,0.747649073600769,0.747649073600769
842,0.9900000095367432,0.02594568580389023,0.02594568580389023,1e-04,0.8399999737739563,0.747029721736908,0.747029721736908
843,0.9700000286102295,0.04701101779937744,0.04701101779937744,1e-04,0.8399999737739563,0.7467554211616516,0.7467554211616516
844,0.9900000095367432,0.026531094685196877,0.026531094685196877,1e-04,0.8399999737739563,0.748065173625946,0.748065173625946
845,0.9900000095367432,0.0255945585668087,0.0255945585668087,1e-04,0.8399999737739563,0.748779296875,0.748779296875
846,0.9900000095367432,0.015888316556811333,0.015888316556811333,1e-04,0.8399999737739563,0.7501742839813232,0.7501742839813232
847,0.9800000190734863,0.030191628262400627,0.030191628262400627,1e-04,0.8399999737739563,0.7526057958602905,0.7526057958602905
848,0.9800000190734863,0.018532855436205864,0.018532855436205864,1e-04,0.8399999737739563,0.757636308670044,0.757636308670044
849,0.9900000095367432,0.026595164090394974,0.026595164090394974,1e-04,0.8299999833106995,0.7625242471694946,0.7625242471694946
850,1.0,0.007716383785009384,0.007716383785009384,1e-04,0.8399999737739563,0.7682129144668579,0.7682129144668579
851,0.949999988079071,0.08393124490976334,0.08393124490976334,1e-04,0.8399999737739563,0.7723099589347839,0.7723099589347839
852,0.9800000190734863,0.03743882477283478,0.03743882477283478,1e-04,0.8399999737739563,0.7780252695083618,0.7780252695083618
853,1.0,0.021854493767023087,0.021854493767023087,1e-04,0.8399999737739563,0.7818527221679688,0.7818527221679688
854,0.9900000095367432,0.02367016300559044,0.02367016300559044,1e-04,0.8399999737739563,0.7816508412361145,0.7816508412361145
855,1.0,0.005885135382413864,0.005885135382413864,1e-04,0.8399999737739563,0.7817627787590027,0.7817627787590027
856,0.9900000095367432,0.012009941041469574,0.012009941041469574,1e-04,0.8399999737739563,0.7804725170135498,0.7804725170135498
857,0.9900000095367432,0.03974322974681854,0.03974322974681854,1e-04,0.8399999737739563,0.7747849822044373,0.7747849822044373
858,0.9800000190734863,0.06175043433904648,0.06175043433904648,1e-04,0.8399999737739563,0.7679896354675293,0.7679896354675293
859,0.9900000095367432,0.020088164135813713,0.020088164135813713,1e-04,0.8399999737739563,0.7604058980941772,0.7604058980941772
860,0.9900000095367432,0.030606502667069435,0.030606502667069435,1e-04,0.8500000238418579,0.7565727233886719,0.7565727233886719
861,1.0,0.020094020292162895,0.020094020292162895,1e-04,0.8399999737739563,0.753063976764679,0.753063976764679
862,0.9900000095367432,0.02509540505707264,0.02509540505707264,1e-04,0.8399999737739563,0.752556324005127,0.752556324005127
863,0.9900000095367432,0.046497754752635956,0.046497754752635956,1e-04,0.8399999737739563,0.7521896958351135,0.7521896958351135
864,0.9900000095367432,0.013678515329957008,0.013678515329957008,1e-04,0.8500000238418579,0.7533078193664551,0.7533078193664551
865,0.9800000190734863,0.05079472437500954,0.05079472437500954,1e-04,0.8500000238418579,0.7554711103439331,0.7554711103439331
866,0.9900000095367432,0.029241640120744705,0.029241640120744705,1e-04,0.8399999737739563,0.7600778937339783,0.7600778937339783
867,1.0,0.009057808667421341,0.009057808667421341,1e-04,0.8399999737739563,0.7654334306716919,0.7654334306716919
868,0.9800000190734863,0.04893985390663147,0.04893985390663147,1e-04,0.8399999737739563,0.7733359336853027,0.7733359336853027
869,1.0,0.005802493542432785,0.005802493542432785,1e-04,0.8500000238418579,0.7824355363845825,0.7824355363845825
870,1.0,0.0048645841889083385,0.0048645841889083385,1e-04,0.8500000238418579,0.7918804883956909,0.7918804883956909
871,0.9800000190734863,0.03160136193037033,0.03160136193037033,1e-04,0.8500000238418579,0.7975373268127441,0.7975373268127441
872,1.0,0.007500292267650366,0.007500292267650366,1e-04,0.8500000238418579,0.8010985851287842,0.8010985851287842
873,0.9900000095367432,0.03095318377017975,0.03095318377017975,1e-04,0.8500000238418579,0.8034058213233948,0.8034058213233948
874,0.9900000095367432,0.024659669026732445,0.024659669026732445,1e-04,0.8500000238418579,0.8038493394851685,0.8038493394851685
875,0.9800000190734863,0.03476700186729431,0.03476700186729431,1e-04,0.8500000238418579,0.8041760325431824,0.8041760325431824
876,0.9800000190734863,0.027041012421250343,0.027041012421250343,1e-04,0.8500000238418579,0.8034507036209106,0.8034507036209106
877,0.9599999785423279,0.09292537719011307,0.09292537719011307,1e-04,0.8500000238418579,0.8025864958763123,0.8025864958763123
878,0.9700000286102295,0.055647317320108414,0.055647317320108414,1e-04,0.8500000238418579,0.7986897230148315,0.7986897230148315
879,0.9800000190734863,0.03801887109875679,0.03801887109875679,1e-04,0.8500000238418579,0.7952206134796143,0.7952206134796143
880,0.9900000095367432,0.030276961624622345,0.030276961624622345,1e-04,0.8500000238418579,0.7912301421165466,0.7912301421165466
881,0.9900000095367432,0.016575239598751068,0.016575239598751068,1e-04,0.8500000238418579,0.7899459600448608,0.7899459600448608
882,0.9900000095367432,0.013732612133026123,0.013732612133026123,1e-04,0.8500000238418579,0.7894230484962463,0.7894230484962463
883,0.9700000286102295,0.05164456367492676,0.05164456367492676,1e-04,0.8500000238418579,0.7845854163169861,0.7845854163169861
884,0.9900000095367432,0.029385071247816086,0.029385071247816086,1e-04,0.8500000238418579,0.7803665995597839,0.7803665995597839
885,0.9800000190734863,0.035561252385377884,0.035561252385377884,1e-04,0.8500000238418579,0.7798953056335449,0.7798953056335449
886,0.9900000095367432,0.027880074456334114,0.027880074456334114,1e-04,0.8500000238418579,0.7790482044219971,0.7790482044219971
887,0.9800000190734863,0.044941335916519165,0.044941335916519165,1e-04,0.8500000238418579,0.7790012955665588,0.7790012955665588
888,1.0,0.01324619259685278,0.01324619259685278,1e-04,0.8399999737739563,0.7811533212661743,0.7811533212661743
889,0.9900000095367432,0.02227429859340191,0.02227429859340191,1e-04,0.8399999737739563,0.78263258934021,0.78263258934021
890,0.9900000095367432,0.014198320917785168,0.014198320917785168,1e-04,0.8500000238418579,0.7865080237388611,0.7865080237388611
891,1.0,0.006327497772872448,0.006327497772872448,1e-04,0.8399999737739563,0.7912155389785767,0.7912155389785767
892,0.9800000190734863,0.024474656209349632,0.024474656209349632,1e-04,0.8399999737739563,0.7952888607978821,0.7952888607978821
893,1.0,0.006380098406225443,0.006380098406225443,1e-04,0.8399999737739563,0.8001717925071716,0.8001717925071716
894,1.0,0.01175730861723423,0.01175730861723423,1e-04,0.8399999737739563,0.8034245371818542,0.8034245371818542
895,1.0,0.004782484844326973,0.004782484844326973,1e-04,0.8399999737739563,0.806326150894165,0.806326150894165
896,1.0,0.013382566161453724,0.013382566161453724,1e-04,0.8399999737739563,0.8083444833755493,0.8083444833755493
897,1.0,0.008598452433943748,0.008598452433943748,1e-04,0.8399999737739563,0.808982253074646,0.808982253074646
898,0.9900000095367432,0.026273580268025398,0.026273580268025398,1e-04,0.8399999737739563,0.8056387305259705,0.8056387305259705
899,1.0,0.004083396401256323,0.004083396401256323,1e-04,0.8399999737739563,0.8027895092964172,0.8027895092964172
900,0.9900000095367432,0.018556278198957443,0.018556278198957443,1e-04,0.8399999737739563,0.7966620922088623,0.7966620922088623
901,1.0,0.012246958911418915,0.012246958911418915,1e-04,0.8399999737739563,0.791637122631073,0.791637122631073
902,0.9900000095367432,0.017048155888915062,0.017048155888915062,1e-04,0.8399999737739563,0.7874526977539062,0.7874526977539062
903,0.9900000095367432,0.03989125415682793,0.03989125415682793,1e-04,0.8299999833106995,0.7815789580345154,0.7815789580345154
904,1.0,0.017138568684458733,0.017138568684458733,1e-04,0.8299999833106995,0.7767907977104187,0.7767907977104187
905,0.9800000190734863,0.04193969815969467,0.04193969815969467,1e-04,0.8399999737739563,0.7758764028549194,0.7758764028549194
906,1.0,0.0128115713596344,0.0128115713596344,1e-04,0.8399999737739563,0.7755536437034607,0.7755536437034607
907,1.0,0.008348798379302025,0.008348798379302025,1e-04,0.8399999737739563,0.7751149535179138,0.7751149535179138
908,0.9800000190734863,0.02138620801270008,0.02138620801270008,1e-04,0.8399999737739563,0.774237871170044,0.774237871170044
909,0.9900000095367432,0.04719070345163345,0.04719070345163345,1e-04,0.8399999737739563,0.7757952213287354,0.7757952213287354
910,0.9900000095367432,0.02897241897881031,0.02897241897881031,1e-04,0.8399999737739563,0.7764183282852173,0.7764183282852173
911,0.9900000095367432,0.0259581096470356,0.0259581096470356,1e-04,0.8299999833106995,0.7778657674789429,0.7778657674789429
912,0.9700000286102295,0.07900775969028473,0.07900775969028473,1e-04,0.8299999833106995,0.7801415324211121,0.7801415324211121
913,0.9900000095367432,0.0398748554289341,0.0398748554289341,1e-04,0.8299999833106995,0.7819985151290894,0.7819985151290894
914,0.9599999785423279,0.07698747515678406,0.07698747515678406,1e-04,0.8299999833106995,0.7820500135421753,0.7820500135421753
915,0.9700000286102295,0.07752523571252823,0.07752523571252823,1e-04,0.8299999833106995,0.784699022769928,0.784699022769928
916,0.9900000095367432,0.02314096875488758,0.02314096875488758,1e-04,0.8299999833106995,0.7879348993301392,0.7879348993301392
917,1.0,0.02052963525056839,0.02052963525056839,1e-04,0.8399999737739563,0.7927514910697937,0.7927514910697937
918,0.9900000095367432,0.021869905292987823,0.021869905292987823,1e-04,0.8399999737739563,0.798720121383667,0.798720121383667
919,0.9900000095367432,0.012819592840969563,0.012819592840969563,1e-04,0.8399999737739563,0.8052670955657959,0.8052670955657959
920,0.9900000095367432,0.02964756265282631,0.02964756265282631,1e-04,0.8399999737739563,0.8135812878608704,0.8135812878608704
921,1.0,0.006211899686604738,0.006211899686604738,1e-04,0.8399999737739563,0.8223310112953186,0.8223310112953186
922,0.9700000286102295,0.0820138230919838,0.0820138230919838,1e-04,0.8399999737739563,0.8281607031822205,0.8281607031822205
923,0.9900000095367432,0.026570286601781845,0.026570286601781845,1e-04,0.8399999737739563,0.8290979862213135,0.8290979862213135
924,0.9900000095367432,0.02254733256995678,0.02254733256995678,1e-04,0.8399999737739563,0.8274137377738953,0.8274137377738953
925,1.0,0.007858341559767723,0.007858341559767723,1e-04,0.8399999737739563,0.82806396484375,0.82806396484375
926,0.9800000190734863,0.05038737133145332,0.05038737133145332,1e-04,0.8399999737739563,0.8281091451644897,0.8281091451644897
927,0.9900000095367432,0.022281154990196228,0.022281154990196228,1e-04,0.8399999737739563,0.8290566802024841,0.8290566802024841
928,0.9800000190734863,0.06890992820262909,0.06890992820262909,1e-04,0.8399999737739563,0.8287726044654846,0.8287726044654846
929,1.0,0.01276039332151413,0.01276039332151413,1e-04,0.8399999737739563,0.828772783279419,0.828772783279419
930,0.9700000286102295,0.06373360753059387,0.06373360753059387,1e-04,0.8399999737739563,0.8296942710876465,0.8296942710876465
931,1.0,0.005429200362414122,0.005429200362414122,1e-04,0.8399999737739563,0.8303768038749695,0.8303768038749695
932,0.9900000095367432,0.03151368722319603,0.03151368722319603,1e-04,0.8399999737739563,0.8291694521903992,0.8291694521903992
933,1.0,0.007378966081887484,0.007378966081887484,1e-04,0.8399999737739563,0.8301143646240234,0.8301143646240234
934,1.0,0.004259848967194557,0.004259848967194557,1e-04,0.8399999737739563,0.8313299417495728,0.8313299417495728
935,1.0,0.018388375639915466,0.018388375639915466,1e-04,0.8399999737739563,0.8359125256538391,0.8359125256538391
936,0.9900000095367432,0.026861021295189857,0.026861021295189857,1e-04,0.8399999737739563,0.8420252799987793,0.8420252799987793
937,0.9900000095367432,0.022788506001234055,0.022788506001234055,1e-04,0.8399999737739563,0.8457034230232239,0.8457034230232239
938,0.9800000190734863,0.036988116800785065,0.036988116800785065,1e-04,0.8399999737739563,0.8557406663894653,0.8557406663894653
939,1.0,0.00913252867758274,0.00913252867758274,1e-04,0.8299999833106995,0.8654518723487854,0.8654518723487854
940,0.9800000190734863,0.046216320246458054,0.046216320246458054,1e-04,0.8299999833106995,0.8648321628570557,0.8648321628570557
941,0.9900000095367432,0.018632827326655388,0.018632827326655388,1e-04,0.8299999833106995,0.8700533509254456,0.8700533509254456
942,1.0,0.010473770089447498,0.010473770089447498,1e-04,0.8299999833106995,0.8726811408996582,0.8726811408996582
943,1.0,0.015316481702029705,0.015316481702029705,1e-04,0.8299999833106995,0.8725441098213196,0.8725441098213196
944,0.9900000095367432,0.04100101813673973,0.04100101813673973,1e-04,0.8399999737739563,0.8650769591331482,0.8650769591331482
945,0.9900000095367432,0.029002856463193893,0.029002856463193893,1e-04,0.8399999737739563,0.8542732000350952,0.8542732000350952
946,1.0,0.005072243046015501,0.005072243046015501,1e-04,0.8399999737739563,0.8444571495056152,0.8444571495056152
947,0.9800000190734863,0.051145125180482864,0.051145125180482864,1e-04,0.8399999737739563,0.8326995372772217,0.8326995372772217
948,1.0,0.013255639933049679,0.013255639933049679,1e-04,0.8500000238418579,0.8236671686172485,0.8236671686172485
949,1.0,0.015284638851881027,0.015284638851881027,1e-04,0.8500000238418579,0.819622814655304,0.819622814655304
950,0.9800000190734863,0.08588913828134537,0.08588913828134537,1e-04,0.8500000238418579,0.8196600079536438,0.8196600079536438
951,0.9900000095367432,0.034993257373571396,0.034993257373571396,1e-04,0.8500000238418579,0.8234504461288452,0.8234504461288452
952,1.0,0.009343855082988739,0.009343855082988739,1e-04,0.8500000238418579,0.828835129737854,0.828835129737854
953,0.9800000190734863,0.04050394892692566,0.04050394892692566,1e-04,0.8500000238418579,0.8330125212669373,0.8330125212669373
954,0.9700000286102295,0.07105512171983719,0.07105512171983719,1e-04,0.8399999737739563,0.843807578086853,0.843807578086853
955,0.9900000095367432,0.021798493340611458,0.021798493340611458,1e-04,0.8399999737739563,0.8534455895423889,0.8534455895423889
956,1.0,0.010712848044931889,0.010712848044931889,1e-04,0.8299999833106995,0.8620542883872986,0.8620542883872986
957,0.9900000095367432,0.019585931673645973,0.019585931673645973,1e-04,0.8299999833106995,0.8697976469993591,0.8697976469993591
958,0.9900000095367432,0.03188474103808403,0.03188474103808403,1e-04,0.8299999833106995,0.8707359433174133,0.8707359433174133
959,0.9900000095367432,0.03249470889568329,0.03249470889568329,1e-04,0.8299999833106995,0.8604562282562256,0.8604562282562256
960,1.0,0.013718203641474247,0.013718203641474247,1e-04,0.8399999737739563,0.8492249250411987,0.8492249250411987
961,1.0,0.020821722224354744,0.020821722224354744,1e-04,0.8399999737739563,0.8401504755020142,0.8401504755020142
962,0.9900000095367432,0.020754104480147362,0.020754104480147362,1e-04,0.8399999737739563,0.8278349041938782,0.8278349041938782
963,0.9900000095367432,0.018471622839570045,0.018471622839570045,1e-04,0.8399999737739563,0.8188503384590149,0.8188503384590149
964,0.9800000190734863,0.03753593564033508,0.03753593564033508,1e-04,0.8500000238418579,0.8042721748352051,0.8042721748352051
965,0.9900000095367432,0.026533542200922966,0.026533542200922966,1e-04,0.8500000238418579,0.791098415851593,0.791098415851593
966,1.0,0.014854208566248417,0.014854208566248417,1e-04,0.8399999737739563,0.7829838395118713,0.7829838395118713
967,1.0,0.007065583020448685,0.007065583020448685,1e-04,0.8500000238418579,0.7771435379981995,0.7771435379981995
968,0.949999988079071,0.07283167541027069,0.07283167541027069,1e-04,0.8500000238418579,0.7754408121109009,0.7754408121109009
969,0.9900000095367432,0.016138115897774696,0.016138115897774696,1e-04,0.8500000238418579,0.7746985554695129,0.7746985554695129
970,0.9900000095367432,0.01602647826075554,0.01602647826075554,1e-04,0.8399999737739563,0.7749892473220825,0.7749892473220825
971,0.9900000095367432,0.020698590204119682,0.020698590204119682,1e-04,0.8500000238418579,0.7775083780288696,0.7775083780288696
972,0.9900000095367432,0.020494725555181503,0.020494725555181503,1e-04,0.8500000238418579,0.7787267565727234,0.7787267565727234
