epoch,accuracy,categorical_crossentropy,loss,lr,val_accuracy,val_categorical_crossentropy,val_loss
0,0.15000000596046448,1.4007933139801025,1.4007933139801025,0.001,0.7021738886833191,0.9527783989906311,0.9527783989906311
1,0.875,0.4708382487297058,0.4708382487297058,0.001,0.8384057879447937,0.42185062170028687,0.42185062170028687
2,0.9750000238418579,0.07901828736066818,0.07901828736066818,0.001,0.8717391490936279,0.3240217864513397,0.3240217864513397
3,1.0,0.02255222573876381,0.02255222573876381,0.001,0.8876811861991882,0.3188735842704773,0.3188735842704773
4,1.0,0.013001704588532448,0.013001704588532448,0.001,0.9021739363670349,0.3216075599193573,0.3216075599193573
5,1.0,0.00812180619686842,0.00812180619686842,0.001,0.9144927263259888,0.3437463641166687,0.3437463641166687
6,1.0,0.003263245802372694,0.003263245802372694,0.001,0.915217399597168,0.3736748695373535,0.3736748695373535
7,1.0,0.0006814971566200256,0.0006814971566200256,0.001,0.915217399597168,0.4080544412136078,0.4080544412136078
8,1.0,0.0001422944333171472,0.0001422944333171472,0.001,0.9217391014099121,0.4417354464530945,0.4417354464530945
9,1.0,7.298216132767266e-06,7.298216132767266e-06,0.001,0.926086962223053,0.4765694737434387,0.4765694737434387
10,1.0,2.503287305444246e-06,2.503287305444246e-06,0.001,0.928260862827301,0.5111289024353027,0.5111289024353027
11,1.0,5.6624390509796285e-08,5.6624390509796285e-08,0.001,0.9289855360984802,0.5456552505493164,0.5456552505493164
12,1.0,8.940696183401542e-09,8.940696183401542e-09,0.001,0.928260862827301,0.5796194672584534,0.5796194672584534
13,1.0,0.0,0.0,0.001,0.9289855360984802,0.6127973794937134,0.6127973794937134
14,1.0,0.0,0.0,0.001,0.9289855360984802,0.6446704864501953,0.6446704864501953
15,1.0,0.0,0.0,0.001,0.9304347634315491,0.6750739216804504,0.6750739812850952
16,1.0,0.0,0.0,0.001,0.9304347634315491,0.7037292122840881,0.7037292122840881
17,1.0,0.0,0.0,0.001,0.9311594367027283,0.730466902256012,0.730466902256012
18,1.0,0.0,0.0,0.001,0.9318840503692627,0.7553350329399109,0.7553350329399109
19,1.0,0.0,0.0,0.001,0.9318840503692627,0.7785463929176331,0.7785463929176331
20,1.0,0.0,0.0,0.001,0.9318840503692627,0.8001924753189087,0.8001924753189087
21,1.0,0.0,0.0,0.001,0.9326087236404419,0.8203519582748413,0.8203519582748413
22,1.0,0.0,0.0,0.001,0.9333333373069763,0.838935375213623,0.838935375213623
23,1.0,0.0,0.0,0.001,0.9340579509735107,0.8562296628952026,0.8562296628952026
24,1.0,0.0,0.0,0.001,0.9355072379112244,0.872251033782959,0.872251033782959
25,1.0,0.0,0.0,0.001,0.9347826242446899,0.8870144486427307,0.8870144486427307
26,1.0,0.0,0.0,0.001,0.9347826242446899,0.9006655216217041,0.9006655216217041
27,1.0,0.0,0.0,0.001,0.9347826242446899,0.9131922721862793,0.9131922721862793
28,1.0,0.0,0.0,0.001,0.9347826242446899,0.9246437549591064,0.9246437549591064
29,1.0,0.0,0.0,0.001,0.9347826242446899,0.9352045655250549,0.9352045655250549
30,1.0,0.0,0.0,0.001,0.9347826242446899,0.9448766112327576,0.9448766112327576
31,1.0,0.0,0.0,0.001,0.9347826242446899,0.9537148475646973,0.9537148475646973
32,1.0,0.0,0.0,0.001,0.9355072379112244,0.9618526697158813,0.9618526697158813
33,1.0,0.0,0.0,0.001,0.9355072379112244,0.9692646265029907,0.9692646265029907
34,1.0,0.0,0.0,0.001,0.9355072379112244,0.9761369228363037,0.9761369228363037
35,1.0,0.0,0.0,0.001,0.9355072379112244,0.9823508262634277,0.9823508262634277
36,1.0,0.0,0.0,0.001,0.9355072379112244,0.9880712628364563,0.9880712628364563
37,1.0,0.0,0.0,0.001,0.9355072379112244,0.9932475686073303,0.9932475686073303
38,1.0,0.0,0.0,0.001,0.9355072379112244,0.9980605840682983,0.9980605840682983
39,1.0,0.0,0.0,0.001,0.9355072379112244,1.0024360418319702,1.0024360418319702
40,1.0,0.0,0.0,0.001,0.9355072379112244,1.0064538717269897,1.0064538717269897
41,1.0,0.0,0.0,0.001,0.9355072379112244,1.0100144147872925,1.0100144147872925
42,1.0,0.0,0.0,0.001,0.9355072379112244,1.0133843421936035,1.0133843421936035
43,1.0,0.0,0.0,0.001,0.9347826242446899,1.0163804292678833,1.0163804292678833
44,1.0,0.0,0.0,0.001,0.9347826242446899,1.0190712213516235,1.0190712213516235
45,1.0,0.0,0.0,0.001,0.9347826242446899,1.0216034650802612,1.0216034650802612
46,1.0,0.0,0.0,0.001,0.9347826242446899,1.0238734483718872,1.0238734483718872
47,1.0,0.0,0.0,0.001,0.9347826242446899,1.0260164737701416,1.0260164737701416
48,1.0,0.0,0.0,0.001,0.9347826242446899,1.02786123752594,1.02786123752594
49,1.0,0.0,0.0,0.001,0.9347826242446899,1.029621958732605,1.029621958732605
50,1.0,0.0,0.0,0.001,0.9347826242446899,1.0311800241470337,1.0311800241470337
51,1.0,0.0,0.0,0.001,0.9347826242446899,1.0325952768325806,1.0325952768325806
52,1.0,0.0,0.0,0.001,0.9347826242446899,1.0339018106460571,1.0339018106460571
53,1.0,0.0,0.0,0.001,0.9347826242446899,1.0350524187088013,1.0350524187088013
54,1.0,0.0,0.0,0.0005,0.9347826242446899,1.0355974435806274,1.0355974435806274
55,1.0,0.0,0.0,0.0005,0.9347826242446899,1.036069631576538,1.036069631576538
56,1.0,0.0,0.0,0.0005,0.9347826242446899,1.0365389585494995,1.0365389585494995
57,1.0,0.0,0.0,0.0005,0.9347826242446899,1.036949872970581,1.036949872970581
58,1.0,0.0,0.0,0.0005,0.9347826242446899,1.0372979640960693,1.0372979640960693
59,1.0,0.0,0.0,0.0005,0.9347826242446899,1.0376217365264893,1.0376217365264893
60,1.0,0.0,0.0,0.0005,0.9347826242446899,1.0379177331924438,1.0379177331924438
61,1.0,0.0,0.0,0.0005,0.9347826242446899,1.038183331489563,1.038183331489563
62,1.0,0.0,0.0,0.0005,0.9347826242446899,1.0384548902511597,1.0384548902511597
63,1.0,0.0,0.0,0.0005,0.9347826242446899,1.0386985540390015,1.0386985540390015
64,1.0,0.0,0.0,0.0005,0.9347826242446899,1.0389196872711182,1.0389196872711182
65,1.0,0.0,0.0,0.0005,0.9347826242446899,1.0391106605529785,1.0391106605529785
66,1.0,0.0,0.0,0.0005,0.9347826242446899,1.0392602682113647,1.0392602682113647
67,1.0,0.0,0.0,0.0005,0.9347826242446899,1.0394092798233032,1.0394092798233032
68,1.0,0.0,0.0,0.0005,0.9347826242446899,1.039551854133606,1.039551854133606
69,1.0,0.0,0.0,0.0005,0.9347826242446899,1.0396853685379028,1.0396853685379028
70,1.0,0.0,0.0,0.0005,0.9347826242446899,1.0398067235946655,1.0398067235946655
71,1.0,0.0,0.0,0.0005,0.9347826242446899,1.0399103164672852,1.0399103164672852
72,1.0,0.0,0.0,0.0005,0.9347826242446899,1.0400104522705078,1.0400104522705078
73,1.0,0.0,0.0,0.0005,0.9347826242446899,1.0400896072387695,1.0400896072387695
74,1.0,0.0,0.0,0.0005,0.9347826242446899,1.0401602983474731,1.0401602983474731
75,1.0,0.0,0.0,0.0005,0.9347826242446899,1.040234923362732,1.040234923362732
76,1.0,0.0,0.0,0.0005,0.9347826242446899,1.0402941703796387,1.0402941703796387
77,1.0,0.0,0.0,0.0005,0.9347826242446899,1.0403486490249634,1.0403486490249634
78,1.0,0.0,0.0,0.0005,0.9347826242446899,1.0403990745544434,1.0403990745544434
79,1.0,0.0,0.0,0.0005,0.9347826242446899,1.0404397249221802,1.0404397249221802
80,1.0,0.0,0.0,0.0005,0.9347826242446899,1.0404808521270752,1.0404808521270752
81,1.0,0.0,0.0,0.0005,0.9347826242446899,1.0405206680297852,1.0405206680297852
82,1.0,0.0,0.0,0.0005,0.9347826242446899,1.0405539274215698,1.0405539274215698
83,1.0,0.0,0.0,0.0005,0.9347826242446899,1.0405974388122559,1.0405974388122559
84,1.0,0.0,0.0,0.0005,0.9347826242446899,1.0406293869018555,1.0406293869018555
85,1.0,0.0,0.0,0.0005,0.9347826242446899,1.0406485795974731,1.0406485795974731
86,1.0,0.0,0.0,0.0005,0.9347826242446899,1.0406626462936401,1.0406626462936401
87,1.0,0.0,0.0,0.0005,0.9347826242446899,1.0406886339187622,1.0406886339187622
88,1.0,0.0,0.0,0.0005,0.9347826242446899,1.0407065153121948,1.0407065153121948
89,1.0,0.0,0.0,0.0005,0.9347826242446899,1.0407226085662842,1.0407226085662842
90,1.0,0.0,0.0,0.0005,0.9347826242446899,1.0407326221466064,1.0407326221466064
91,1.0,0.0,0.0,0.0005,0.9347826242446899,1.040743350982666,1.040743350982666
92,1.0,0.0,0.0,0.0005,0.9347826242446899,1.0407601594924927,1.0407601594924927
93,1.0,0.0,0.0,0.0005,0.9347826242446899,1.0407689809799194,1.0407689809799194
94,1.0,0.0,0.0,0.0005,0.9347826242446899,1.0407805442810059,1.0407805442810059
95,1.0,0.0,0.0,0.0005,0.9347826242446899,1.0407882928848267,1.0407882928848267
96,1.0,0.0,0.0,0.0005,0.9347826242446899,1.0407944917678833,1.0407944917678833
97,1.0,0.0,0.0,0.0005,0.9347826242446899,1.0407991409301758,1.0407991409301758
98,1.0,0.0,0.0,0.0005,0.9347826242446899,1.0408052206039429,1.0408052206039429
99,1.0,0.0,0.0,0.0005,0.9347826242446899,1.0408110618591309,1.0408110618591309
100,1.0,0.0,0.0,0.0005,0.9347826242446899,1.040818691253662,1.040818691253662
101,1.0,0.0,0.0,0.0005,0.9347826242446899,1.0408225059509277,1.0408225059509277
102,1.0,0.0,0.0,0.0005,0.9347826242446899,1.0408273935317993,1.0408273935317993
103,1.0,0.0,0.0,0.0005,0.9347826242446899,1.0408321619033813,1.0408321619033813
104,1.0,0.0,0.0,0.00025,0.9347826242446899,1.0408339500427246,1.0408339500427246
105,1.0,0.0,0.0,0.00025,0.9347826242446899,1.040834903717041,1.040834903717041
106,1.0,0.0,0.0,0.00025,0.9347826242446899,1.0408393144607544,1.0408393144607544
107,1.0,0.0,0.0,0.00025,0.9347826242446899,1.040840744972229,1.040840744972229
108,1.0,0.0,0.0,0.00025,0.9347826242446899,1.0408439636230469,1.0408439636230469
109,1.0,0.0,0.0,0.00025,0.9347826242446899,1.0408461093902588,1.0408461093902588
110,1.0,0.0,0.0,0.00025,0.9347826242446899,1.040846824645996,1.040846824645996
111,1.0,0.0,0.0,0.00025,0.9347826242446899,1.0408480167388916,1.0408480167388916
112,1.0,0.0,0.0,0.00025,0.9347826242446899,1.0408493280410767,1.0408493280410767
113,1.0,0.0,0.0,0.00025,0.9347826242446899,1.0408495664596558,1.0408495664596558
114,1.0,0.0,0.0,0.00025,0.9347826242446899,1.0408512353897095,1.0408512353897095
115,1.0,0.0,0.0,0.00025,0.9347826242446899,1.0408519506454468,1.0408519506454468
116,1.0,0.0,0.0,0.00025,0.9347826242446899,1.0408532619476318,1.0408532619476318
117,1.0,0.0,0.0,0.00025,0.9347826242446899,1.0408546924591064,1.0408546924591064
118,1.0,0.0,0.0,0.00025,0.9347826242446899,1.0408552885055542,1.0408552885055542
119,1.0,0.0,0.0,0.00025,0.9347826242446899,1.0408560037612915,1.0408560037612915
120,1.0,0.0,0.0,0.00025,0.9347826242446899,1.0408563613891602,1.0408563613891602
121,1.0,0.0,0.0,0.00025,0.9347826242446899,1.0408570766448975,1.0408570766448975
122,1.0,0.0,0.0,0.00025,0.9347826242446899,1.0408574342727661,1.0408574342727661
123,1.0,0.0,0.0,0.00025,0.9347826242446899,1.0408575534820557,1.0408575534820557
124,1.0,0.0,0.0,0.00025,0.9347826242446899,1.0408575534820557,1.0408575534820557
125,1.0,0.0,0.0,0.00025,0.9347826242446899,1.0408577919006348,1.0408577919006348
126,1.0,0.0,0.0,0.00025,0.9347826242446899,1.0408577919006348,1.0408577919006348
127,1.0,0.0,0.0,0.00025,0.9347826242446899,1.0408577919006348,1.0408577919006348
128,1.0,0.0,0.0,0.00025,0.9347826242446899,1.0408576726913452,1.0408576726913452
129,1.0,0.0,0.0,0.00025,0.9347826242446899,1.0408581495285034,1.0408581495285034
130,1.0,0.0,0.0,0.00025,0.9347826242446899,1.0408583879470825,1.0408583879470825
131,1.0,0.0,0.0,0.00025,0.9347826242446899,1.040858507156372,1.040858507156372
132,1.0,0.0,0.0,0.00025,0.9347826242446899,1.0408583879470825,1.0408583879470825
133,1.0,0.0,0.0,0.00025,0.9347826242446899,1.040858507156372,1.040858507156372
134,1.0,0.0,0.0,0.00025,0.9347826242446899,1.0408587455749512,1.0408587455749512
135,1.0,0.0,0.0,0.00025,0.9347826242446899,1.0408587455749512,1.0408587455749512
136,1.0,0.0,0.0,0.00025,0.9347826242446899,1.0408587455749512,1.0408587455749512
137,1.0,0.0,0.0,0.00025,0.9347826242446899,1.0408587455749512,1.0408587455749512
138,1.0,0.0,0.0,0.00025,0.9347826242446899,1.0408587455749512,1.0408587455749512
139,1.0,0.0,0.0,0.00025,0.9347826242446899,1.0408587455749512,1.0408587455749512
140,1.0,0.0,0.0,0.00025,0.9347826242446899,1.0408587455749512,1.0408587455749512
141,1.0,0.0,0.0,0.00025,0.9347826242446899,1.0408587455749512,1.0408587455749512
142,1.0,0.0,0.0,0.00025,0.9347826242446899,1.0408587455749512,1.0408587455749512
143,1.0,0.0,0.0,0.00025,0.9347826242446899,1.0408587455749512,1.0408587455749512
144,1.0,0.0,0.0,0.00025,0.9347826242446899,1.0408587455749512,1.0408587455749512
145,1.0,0.0,0.0,0.00025,0.9347826242446899,1.0408587455749512,1.0408587455749512
146,1.0,0.0,0.0,0.00025,0.9347826242446899,1.0408587455749512,1.0408587455749512
147,1.0,0.0,0.0,0.00025,0.9347826242446899,1.0408587455749512,1.0408587455749512
148,1.0,0.0,0.0,0.00025,0.9347826242446899,1.0408587455749512,1.0408587455749512
149,1.0,0.0,0.0,0.00025,0.9347826242446899,1.0408587455749512,1.0408587455749512
150,1.0,0.0,0.0,0.00025,0.9347826242446899,1.0408587455749512,1.0408587455749512
151,1.0,0.0,0.0,0.00025,0.9347826242446899,1.0408587455749512,1.0408587455749512
152,1.0,0.0,0.0,0.00025,0.9347826242446899,1.0408587455749512,1.0408587455749512
153,1.0,0.0,0.0,0.00025,0.9347826242446899,1.0408587455749512,1.0408587455749512
154,1.0,0.0,0.0,0.000125,0.9347826242446899,1.0408587455749512,1.0408587455749512
155,1.0,0.0,0.0,0.000125,0.9347826242446899,1.0408587455749512,1.0408587455749512
156,1.0,0.0,0.0,0.000125,0.9347826242446899,1.0408587455749512,1.0408587455749512
157,1.0,0.0,0.0,0.000125,0.9347826242446899,1.0408587455749512,1.0408587455749512
158,1.0,0.0,0.0,0.000125,0.9347826242446899,1.0408587455749512,1.0408587455749512
159,1.0,0.0,0.0,0.000125,0.9347826242446899,1.0408587455749512,1.0408587455749512
160,1.0,0.0,0.0,0.000125,0.9347826242446899,1.0408587455749512,1.0408587455749512
161,1.0,0.0,0.0,0.000125,0.9347826242446899,1.0408587455749512,1.0408587455749512
162,1.0,0.0,0.0,0.000125,0.9347826242446899,1.0408587455749512,1.0408587455749512
163,1.0,0.0,0.0,0.000125,0.9347826242446899,1.0408587455749512,1.0408587455749512
164,1.0,0.0,0.0,0.000125,0.9347826242446899,1.0408587455749512,1.0408587455749512
165,1.0,0.0,0.0,0.000125,0.9347826242446899,1.0408587455749512,1.0408587455749512
166,1.0,0.0,0.0,0.000125,0.9347826242446899,1.0408587455749512,1.0408587455749512
167,1.0,0.0,0.0,0.000125,0.9347826242446899,1.0408587455749512,1.0408587455749512
168,1.0,0.0,0.0,0.000125,0.9347826242446899,1.0408587455749512,1.0408587455749512
169,1.0,0.0,0.0,0.000125,0.9347826242446899,1.0408587455749512,1.0408587455749512
170,1.0,0.0,0.0,0.000125,0.9347826242446899,1.0408587455749512,1.0408587455749512
171,1.0,0.0,0.0,0.000125,0.9347826242446899,1.0408587455749512,1.0408587455749512
172,1.0,0.0,0.0,0.000125,0.9347826242446899,1.0408587455749512,1.0408587455749512
173,1.0,0.0,0.0,0.000125,0.9347826242446899,1.0408587455749512,1.0408587455749512
174,1.0,0.0,0.0,0.000125,0.9347826242446899,1.0408587455749512,1.0408587455749512
175,1.0,0.0,0.0,0.000125,0.9347826242446899,1.0408587455749512,1.0408587455749512
176,1.0,0.0,0.0,0.000125,0.9347826242446899,1.0408587455749512,1.0408587455749512
177,1.0,0.0,0.0,0.000125,0.9347826242446899,1.0408587455749512,1.0408587455749512
178,1.0,0.0,0.0,0.000125,0.9347826242446899,1.0408587455749512,1.0408587455749512
179,1.0,0.0,0.0,0.000125,0.9347826242446899,1.0408587455749512,1.0408587455749512
180,1.0,0.0,0.0,0.000125,0.9347826242446899,1.0408587455749512,1.0408587455749512
181,1.0,0.0,0.0,0.000125,0.9347826242446899,1.0408587455749512,1.0408587455749512
182,1.0,0.0,0.0,0.000125,0.9347826242446899,1.0408587455749512,1.0408587455749512
183,1.0,0.0,0.0,0.000125,0.9347826242446899,1.0408587455749512,1.0408587455749512
184,1.0,0.0,0.0,0.000125,0.9347826242446899,1.0408587455749512,1.0408587455749512
185,1.0,0.0,0.0,0.000125,0.9347826242446899,1.0408587455749512,1.0408587455749512
186,1.0,0.0,0.0,0.000125,0.9347826242446899,1.0408587455749512,1.0408587455749512
187,1.0,0.0,0.0,0.000125,0.9347826242446899,1.0408587455749512,1.0408587455749512
188,1.0,0.0,0.0,0.000125,0.9347826242446899,1.0408587455749512,1.0408587455749512
189,1.0,0.0,0.0,0.000125,0.9347826242446899,1.0408587455749512,1.0408587455749512
190,1.0,0.0,0.0,0.000125,0.9347826242446899,1.0408587455749512,1.0408587455749512
191,1.0,0.0,0.0,0.000125,0.9347826242446899,1.0408587455749512,1.0408587455749512
192,1.0,0.0,0.0,0.000125,0.9347826242446899,1.0408587455749512,1.0408587455749512
193,1.0,0.0,0.0,0.000125,0.9347826242446899,1.0408587455749512,1.0408587455749512
194,1.0,0.0,0.0,0.000125,0.9347826242446899,1.0408587455749512,1.0408587455749512
195,1.0,0.0,0.0,0.000125,0.9347826242446899,1.0408587455749512,1.0408587455749512
196,1.0,0.0,0.0,0.000125,0.9347826242446899,1.0408587455749512,1.0408587455749512
197,1.0,0.0,0.0,0.000125,0.9347826242446899,1.0408587455749512,1.0408587455749512
198,1.0,0.0,0.0,0.000125,0.9347826242446899,1.0408587455749512,1.0408587455749512
199,1.0,0.0,0.0,0.000125,0.9347826242446899,1.0408587455749512,1.0408587455749512
200,1.0,0.0,0.0,0.000125,0.9347826242446899,1.0408587455749512,1.0408587455749512
201,1.0,0.0,0.0,0.000125,0.9347826242446899,1.0408587455749512,1.0408587455749512
202,1.0,0.0,0.0,0.000125,0.9347826242446899,1.0408587455749512,1.0408587455749512
203,1.0,0.0,0.0,0.000125,0.9347826242446899,1.0408587455749512,1.0408587455749512
204,1.0,0.0,0.0,1e-04,0.9347826242446899,1.0408587455749512,1.0408587455749512
205,1.0,0.0,0.0,1e-04,0.9347826242446899,1.0408587455749512,1.0408587455749512
206,1.0,0.0,0.0,1e-04,0.9347826242446899,1.0408587455749512,1.0408587455749512
207,1.0,0.0,0.0,1e-04,0.9347826242446899,1.0408587455749512,1.0408587455749512
208,1.0,0.0,0.0,1e-04,0.9347826242446899,1.0408587455749512,1.0408587455749512
209,1.0,0.0,0.0,1e-04,0.9347826242446899,1.0408587455749512,1.0408587455749512
210,1.0,0.0,0.0,1e-04,0.9347826242446899,1.0408587455749512,1.0408587455749512
211,1.0,0.0,0.0,1e-04,0.9347826242446899,1.0408587455749512,1.0408587455749512
212,1.0,0.0,0.0,1e-04,0.9347826242446899,1.0408587455749512,1.0408587455749512
213,1.0,0.0,0.0,1e-04,0.9347826242446899,1.0408587455749512,1.0408587455749512
214,1.0,0.0,0.0,1e-04,0.9347826242446899,1.0408587455749512,1.0408587455749512
215,1.0,0.0,0.0,1e-04,0.9347826242446899,1.0408587455749512,1.0408587455749512
216,1.0,0.0,0.0,1e-04,0.9347826242446899,1.0408587455749512,1.0408587455749512
217,1.0,0.0,0.0,1e-04,0.9347826242446899,1.0408587455749512,1.0408587455749512
218,1.0,0.0,0.0,1e-04,0.9347826242446899,1.0408587455749512,1.0408587455749512
219,1.0,0.0,0.0,1e-04,0.9347826242446899,1.0408587455749512,1.0408587455749512
220,1.0,0.0,0.0,1e-04,0.9347826242446899,1.0408587455749512,1.0408587455749512
221,1.0,0.0,0.0,1e-04,0.9347826242446899,1.0408587455749512,1.0408587455749512
222,1.0,0.0,0.0,1e-04,0.9347826242446899,1.0408587455749512,1.0408587455749512
223,1.0,0.0,0.0,1e-04,0.9347826242446899,1.0408587455749512,1.0408587455749512
224,1.0,0.0,0.0,1e-04,0.9347826242446899,1.0408587455749512,1.0408587455749512
225,1.0,0.0,0.0,1e-04,0.9347826242446899,1.0408587455749512,1.0408587455749512
226,1.0,0.0,0.0,1e-04,0.9347826242446899,1.0408587455749512,1.0408587455749512
227,1.0,0.0,0.0,1e-04,0.9347826242446899,1.0408587455749512,1.0408587455749512
228,1.0,0.0,0.0,1e-04,0.9347826242446899,1.0408587455749512,1.0408587455749512
229,1.0,0.0,0.0,1e-04,0.9347826242446899,1.0408587455749512,1.0408587455749512
230,1.0,0.0,0.0,1e-04,0.9347826242446899,1.0408587455749512,1.0408587455749512
231,1.0,0.0,0.0,1e-04,0.9347826242446899,1.0408587455749512,1.0408587455749512
232,1.0,0.0,0.0,1e-04,0.9347826242446899,1.0408587455749512,1.0408587455749512
233,1.0,0.0,0.0,1e-04,0.9347826242446899,1.0408587455749512,1.0408587455749512
234,1.0,0.0,0.0,1e-04,0.9347826242446899,1.0408587455749512,1.0408587455749512
235,1.0,0.0,0.0,1e-04,0.9347826242446899,1.0408587455749512,1.0408587455749512
236,1.0,0.0,0.0,1e-04,0.9347826242446899,1.0408587455749512,1.0408587455749512
237,1.0,0.0,0.0,1e-04,0.9347826242446899,1.0408587455749512,1.0408587455749512
238,1.0,0.0,0.0,1e-04,0.9347826242446899,1.0408587455749512,1.0408587455749512
239,1.0,0.0,0.0,1e-04,0.9347826242446899,1.0408587455749512,1.0408587455749512
240,1.0,0.0,0.0,1e-04,0.9347826242446899,1.0408587455749512,1.0408587455749512
241,1.0,0.0,0.0,1e-04,0.9347826242446899,1.0408587455749512,1.0408587455749512
242,1.0,0.0,0.0,1e-04,0.9347826242446899,1.0408587455749512,1.0408587455749512
243,1.0,0.0,0.0,1e-04,0.9347826242446899,1.0408587455749512,1.0408587455749512
244,1.0,0.0,0.0,1e-04,0.9347826242446899,1.0408587455749512,1.0408587455749512
245,1.0,0.0,0.0,1e-04,0.9347826242446899,1.0408587455749512,1.0408587455749512
246,1.0,0.0,0.0,1e-04,0.9347826242446899,1.0408587455749512,1.0408587455749512
247,1.0,0.0,0.0,1e-04,0.9347826242446899,1.0408587455749512,1.0408587455749512
248,1.0,0.0,0.0,1e-04,0.9347826242446899,1.0408587455749512,1.0408587455749512
249,1.0,0.0,0.0,1e-04,0.9347826242446899,1.0408587455749512,1.0408587455749512
250,1.0,0.0,0.0,1e-04,0.9347826242446899,1.0408587455749512,1.0408587455749512
251,1.0,0.0,0.0,1e-04,0.9347826242446899,1.0408587455749512,1.0408587455749512
252,1.0,0.0,0.0,1e-04,0.9347826242446899,1.0408587455749512,1.0408587455749512
253,1.0,0.0,0.0,1e-04,0.9347826242446899,1.0408587455749512,1.0408587455749512
254,1.0,0.0,0.0,1e-04,0.9347826242446899,1.0408587455749512,1.0408587455749512
255,1.0,0.0,0.0,1e-04,0.9347826242446899,1.0408587455749512,1.0408587455749512
256,1.0,0.0,0.0,1e-04,0.9347826242446899,1.0408587455749512,1.0408587455749512
257,1.0,0.0,0.0,1e-04,0.9347826242446899,1.0408587455749512,1.0408587455749512
258,1.0,0.0,0.0,1e-04,0.9347826242446899,1.0408587455749512,1.0408587455749512
259,1.0,0.0,0.0,1e-04,0.9347826242446899,1.0408587455749512,1.0408587455749512
260,1.0,0.0,0.0,1e-04,0.9347826242446899,1.0408587455749512,1.0408587455749512
261,1.0,0.0,0.0,1e-04,0.9347826242446899,1.0408587455749512,1.0408587455749512
262,1.0,0.0,0.0,1e-04,0.9347826242446899,1.0408587455749512,1.0408587455749512
263,1.0,0.0,0.0,1e-04,0.9347826242446899,1.0408587455749512,1.0408587455749512
264,1.0,0.0,0.0,1e-04,0.9347826242446899,1.0408587455749512,1.0408587455749512
265,1.0,0.0,0.0,1e-04,0.9347826242446899,1.0408587455749512,1.0408587455749512
266,1.0,0.0,0.0,1e-04,0.9347826242446899,1.0408587455749512,1.0408587455749512
267,1.0,0.0,0.0,1e-04,0.9347826242446899,1.0408587455749512,1.0408587455749512
268,1.0,0.0,0.0,1e-04,0.9347826242446899,1.0408587455749512,1.0408587455749512
269,1.0,0.0,0.0,1e-04,0.9347826242446899,1.0408587455749512,1.0408587455749512
270,1.0,0.0,0.0,1e-04,0.9347826242446899,1.0408587455749512,1.0408587455749512
271,1.0,0.0,0.0,1e-04,0.9347826242446899,1.0408587455749512,1.0408587455749512
272,1.0,0.0,0.0,1e-04,0.9347826242446899,1.0408587455749512,1.0408587455749512
273,1.0,0.0,0.0,1e-04,0.9347826242446899,1.0408587455749512,1.0408587455749512
274,1.0,0.0,0.0,1e-04,0.9347826242446899,1.0408587455749512,1.0408587455749512
275,1.0,0.0,0.0,1e-04,0.9347826242446899,1.0408587455749512,1.0408587455749512
276,1.0,0.0,0.0,1e-04,0.9347826242446899,1.0408587455749512,1.0408587455749512
277,1.0,0.0,0.0,1e-04,0.9347826242446899,1.0408587455749512,1.0408587455749512
278,1.0,0.0,0.0,1e-04,0.9347826242446899,1.0408587455749512,1.0408587455749512
279,1.0,0.0,0.0,1e-04,0.9347826242446899,1.0408587455749512,1.0408587455749512
280,1.0,0.0,0.0,1e-04,0.9347826242446899,1.0408587455749512,1.0408587455749512
281,1.0,0.0,0.0,1e-04,0.9347826242446899,1.0408587455749512,1.0408587455749512
282,1.0,0.0,0.0,1e-04,0.9347826242446899,1.0408587455749512,1.0408587455749512
283,1.0,0.0,0.0,1e-04,0.9347826242446899,1.0408587455749512,1.0408587455749512
284,1.0,0.0,0.0,1e-04,0.9347826242446899,1.0408587455749512,1.0408587455749512
285,1.0,0.0,0.0,1e-04,0.9347826242446899,1.0408587455749512,1.0408587455749512
286,1.0,0.0,0.0,1e-04,0.9347826242446899,1.0408587455749512,1.0408587455749512
287,1.0,0.0,0.0,1e-04,0.9347826242446899,1.0408587455749512,1.0408587455749512
288,1.0,0.0,0.0,1e-04,0.9347826242446899,1.0408587455749512,1.0408587455749512
289,1.0,0.0,0.0,1e-04,0.9347826242446899,1.0408587455749512,1.0408587455749512
290,1.0,0.0,0.0,1e-04,0.9347826242446899,1.0408587455749512,1.0408587455749512
291,1.0,0.0,0.0,1e-04,0.9347826242446899,1.0408587455749512,1.0408587455749512
292,1.0,0.0,0.0,1e-04,0.9347826242446899,1.0408587455749512,1.0408587455749512
293,1.0,0.0,0.0,1e-04,0.9347826242446899,1.0408587455749512,1.0408587455749512
294,1.0,0.0,0.0,1e-04,0.9347826242446899,1.0408587455749512,1.0408587455749512
295,1.0,0.0,0.0,1e-04,0.9347826242446899,1.0408587455749512,1.0408587455749512
296,1.0,0.0,0.0,1e-04,0.9347826242446899,1.0408587455749512,1.0408587455749512
297,1.0,0.0,0.0,1e-04,0.9347826242446899,1.0408587455749512,1.0408587455749512
298,1.0,0.0,0.0,1e-04,0.9347826242446899,1.0408587455749512,1.0408587455749512
299,1.0,0.0,0.0,1e-04,0.9347826242446899,1.0408587455749512,1.0408587455749512
300,1.0,0.0,0.0,1e-04,0.9347826242446899,1.0408587455749512,1.0408587455749512
301,1.0,0.0,0.0,1e-04,0.9347826242446899,1.0408587455749512,1.0408587455749512
302,1.0,0.0,0.0,1e-04,0.9347826242446899,1.0408587455749512,1.0408587455749512
303,1.0,0.0,0.0,1e-04,0.9347826242446899,1.0408587455749512,1.0408587455749512
304,1.0,0.0,0.0,1e-04,0.9347826242446899,1.0408587455749512,1.0408587455749512
305,1.0,0.0,0.0,1e-04,0.9347826242446899,1.0408587455749512,1.0408587455749512
306,1.0,0.0,0.0,1e-04,0.9347826242446899,1.0408587455749512,1.0408587455749512
307,1.0,0.0,0.0,1e-04,0.9347826242446899,1.0408587455749512,1.0408587455749512
308,1.0,0.0,0.0,1e-04,0.9347826242446899,1.0408587455749512,1.0408587455749512
309,1.0,0.0,0.0,1e-04,0.9347826242446899,1.0408587455749512,1.0408587455749512
310,1.0,0.0,0.0,1e-04,0.9347826242446899,1.0408587455749512,1.0408587455749512
311,1.0,0.0,0.0,1e-04,0.9347826242446899,1.0408587455749512,1.0408587455749512
312,1.0,0.0,0.0,1e-04,0.9347826242446899,1.0408587455749512,1.0408587455749512
313,1.0,0.0,0.0,1e-04,0.9347826242446899,1.0408587455749512,1.0408587455749512
314,1.0,0.0,0.0,1e-04,0.9347826242446899,1.0408587455749512,1.0408587455749512
315,1.0,0.0,0.0,1e-04,0.9347826242446899,1.0408587455749512,1.0408587455749512
316,1.0,0.0,0.0,1e-04,0.9347826242446899,1.0408587455749512,1.0408587455749512
317,1.0,0.0,0.0,1e-04,0.9347826242446899,1.0408587455749512,1.0408587455749512
318,1.0,0.0,0.0,1e-04,0.9347826242446899,1.0408587455749512,1.0408587455749512
319,1.0,0.0,0.0,1e-04,0.9347826242446899,1.0408587455749512,1.0408587455749512
320,1.0,0.0,0.0,1e-04,0.9347826242446899,1.0408587455749512,1.0408587455749512
321,1.0,0.0,0.0,1e-04,0.9347826242446899,1.0408587455749512,1.0408587455749512
322,1.0,0.0,0.0,1e-04,0.9347826242446899,1.0408587455749512,1.0408587455749512
323,1.0,0.0,0.0,1e-04,0.9347826242446899,1.0408587455749512,1.0408587455749512
324,1.0,0.0,0.0,1e-04,0.9347826242446899,1.0408587455749512,1.0408587455749512
325,1.0,0.0,0.0,1e-04,0.9347826242446899,1.0408587455749512,1.0408587455749512
326,1.0,0.0,0.0,1e-04,0.9347826242446899,1.0408587455749512,1.0408587455749512
327,1.0,0.0,0.0,1e-04,0.9347826242446899,1.0408587455749512,1.0408587455749512
328,1.0,0.0,0.0,1e-04,0.9347826242446899,1.0408587455749512,1.0408587455749512
329,1.0,0.0,0.0,1e-04,0.9347826242446899,1.0408587455749512,1.0408587455749512
330,1.0,0.0,0.0,1e-04,0.9347826242446899,1.0408587455749512,1.0408587455749512
331,1.0,0.0,0.0,1e-04,0.9347826242446899,1.0408587455749512,1.0408587455749512
332,1.0,0.0,0.0,1e-04,0.9347826242446899,1.0408587455749512,1.0408587455749512
333,1.0,0.0,0.0,1e-04,0.9347826242446899,1.0408587455749512,1.0408587455749512
334,1.0,0.0,0.0,1e-04,0.9347826242446899,1.0408587455749512,1.0408587455749512
335,1.0,0.0,0.0,1e-04,0.9347826242446899,1.0408587455749512,1.0408587455749512
336,1.0,0.0,0.0,1e-04,0.9347826242446899,1.0408587455749512,1.0408587455749512
337,1.0,0.0,0.0,1e-04,0.9347826242446899,1.0408587455749512,1.0408587455749512
338,1.0,0.0,0.0,1e-04,0.9347826242446899,1.0408587455749512,1.0408587455749512
339,1.0,0.0,0.0,1e-04,0.9347826242446899,1.0408587455749512,1.0408587455749512
340,1.0,0.0,0.0,1e-04,0.9347826242446899,1.0408587455749512,1.0408587455749512
341,1.0,0.0,0.0,1e-04,0.9347826242446899,1.0408587455749512,1.0408587455749512
342,1.0,0.0,0.0,1e-04,0.9347826242446899,1.0408587455749512,1.0408587455749512
343,1.0,0.0,0.0,1e-04,0.9347826242446899,1.0408587455749512,1.0408587455749512
344,1.0,0.0,0.0,1e-04,0.9347826242446899,1.0408587455749512,1.0408587455749512
345,1.0,0.0,0.0,1e-04,0.9347826242446899,1.0408587455749512,1.0408587455749512
346,1.0,0.0,0.0,1e-04,0.9347826242446899,1.0408587455749512,1.0408587455749512
347,1.0,0.0,0.0,1e-04,0.9347826242446899,1.0408587455749512,1.0408587455749512
348,1.0,0.0,0.0,1e-04,0.9347826242446899,1.0408587455749512,1.0408587455749512
349,1.0,0.0,0.0,1e-04,0.9347826242446899,1.0408587455749512,1.0408587455749512
350,1.0,0.0,0.0,1e-04,0.9347826242446899,1.0408587455749512,1.0408587455749512
351,1.0,0.0,0.0,1e-04,0.9347826242446899,1.0408587455749512,1.0408587455749512
352,1.0,0.0,0.0,1e-04,0.9347826242446899,1.0408587455749512,1.0408587455749512
353,1.0,0.0,0.0,1e-04,0.9347826242446899,1.0408587455749512,1.0408587455749512
354,1.0,0.0,0.0,1e-04,0.9347826242446899,1.0408587455749512,1.0408587455749512
355,1.0,0.0,0.0,1e-04,0.9347826242446899,1.0408587455749512,1.0408587455749512
356,1.0,0.0,0.0,1e-04,0.9347826242446899,1.0408587455749512,1.0408587455749512
357,1.0,0.0,0.0,1e-04,0.9347826242446899,1.0408587455749512,1.0408587455749512
358,1.0,0.0,0.0,1e-04,0.9347826242446899,1.0408587455749512,1.0408587455749512
359,1.0,0.0,0.0,1e-04,0.9347826242446899,1.0408587455749512,1.0408587455749512
360,1.0,0.0,0.0,1e-04,0.9347826242446899,1.0408587455749512,1.0408587455749512
361,1.0,0.0,0.0,1e-04,0.9347826242446899,1.0408587455749512,1.0408587455749512
362,1.0,0.0,0.0,1e-04,0.9347826242446899,1.0408587455749512,1.0408587455749512
363,1.0,0.0,0.0,1e-04,0.9347826242446899,1.0408587455749512,1.0408587455749512
364,1.0,0.0,0.0,1e-04,0.9347826242446899,1.0408587455749512,1.0408587455749512
365,1.0,0.0,0.0,1e-04,0.9347826242446899,1.0408587455749512,1.0408587455749512
366,1.0,0.0,0.0,1e-04,0.9347826242446899,1.0408587455749512,1.0408587455749512
367,1.0,0.0,0.0,1e-04,0.9347826242446899,1.0408587455749512,1.0408587455749512
368,1.0,0.0,0.0,1e-04,0.9347826242446899,1.0408587455749512,1.0408587455749512
369,1.0,0.0,0.0,1e-04,0.9347826242446899,1.0408587455749512,1.0408587455749512
370,1.0,0.0,0.0,1e-04,0.9347826242446899,1.0408587455749512,1.0408587455749512
371,1.0,0.0,0.0,1e-04,0.9347826242446899,1.0408587455749512,1.0408587455749512
372,1.0,0.0,0.0,1e-04,0.9347826242446899,1.0408587455749512,1.0408587455749512
373,1.0,0.0,0.0,1e-04,0.9347826242446899,1.0408587455749512,1.0408587455749512
374,1.0,0.0,0.0,1e-04,0.9347826242446899,1.0408587455749512,1.0408587455749512
375,1.0,0.0,0.0,1e-04,0.9347826242446899,1.0408587455749512,1.0408587455749512
376,1.0,0.0,0.0,1e-04,0.9347826242446899,1.0408587455749512,1.0408587455749512
377,1.0,0.0,0.0,1e-04,0.9347826242446899,1.0408587455749512,1.0408587455749512
378,1.0,0.0,0.0,1e-04,0.9347826242446899,1.0408587455749512,1.0408587455749512
379,1.0,0.0,0.0,1e-04,0.9347826242446899,1.0408587455749512,1.0408587455749512
380,1.0,0.0,0.0,1e-04,0.9347826242446899,1.0408587455749512,1.0408587455749512
381,1.0,0.0,0.0,1e-04,0.9347826242446899,1.0408587455749512,1.0408587455749512
382,1.0,0.0,0.0,1e-04,0.9347826242446899,1.0408587455749512,1.0408587455749512
383,1.0,0.0,0.0,1e-04,0.9347826242446899,1.0408587455749512,1.0408587455749512
384,1.0,0.0,0.0,1e-04,0.9347826242446899,1.0408587455749512,1.0408587455749512
385,1.0,0.0,0.0,1e-04,0.9347826242446899,1.0408587455749512,1.0408587455749512
386,1.0,0.0,0.0,1e-04,0.9347826242446899,1.0408587455749512,1.0408587455749512
387,1.0,0.0,0.0,1e-04,0.9347826242446899,1.0408587455749512,1.0408587455749512
388,1.0,0.0,0.0,1e-04,0.9347826242446899,1.0408587455749512,1.0408587455749512
389,1.0,0.0,0.0,1e-04,0.9347826242446899,1.0408587455749512,1.0408587455749512
390,1.0,0.0,0.0,1e-04,0.9347826242446899,1.0408587455749512,1.0408587455749512
391,1.0,0.0,0.0,1e-04,0.9347826242446899,1.0408587455749512,1.0408587455749512
392,1.0,0.0,0.0,1e-04,0.9347826242446899,1.0408587455749512,1.0408587455749512
393,1.0,0.0,0.0,1e-04,0.9347826242446899,1.0408587455749512,1.0408587455749512
394,1.0,0.0,0.0,1e-04,0.9347826242446899,1.0408587455749512,1.0408587455749512
395,1.0,0.0,0.0,1e-04,0.9347826242446899,1.0408587455749512,1.0408587455749512
396,1.0,0.0,0.0,1e-04,0.9347826242446899,1.0408587455749512,1.0408587455749512
397,1.0,0.0,0.0,1e-04,0.9347826242446899,1.0408587455749512,1.0408587455749512
398,1.0,0.0,0.0,1e-04,0.9347826242446899,1.0408587455749512,1.0408587455749512
399,1.0,0.0,0.0,1e-04,0.9347826242446899,1.0408587455749512,1.0408587455749512
400,1.0,0.0,0.0,1e-04,0.9347826242446899,1.0408587455749512,1.0408587455749512
401,1.0,0.0,0.0,1e-04,0.9347826242446899,1.0408587455749512,1.0408587455749512
402,1.0,0.0,0.0,1e-04,0.9347826242446899,1.0408587455749512,1.0408587455749512
403,1.0,0.0,0.0,1e-04,0.9347826242446899,1.0408587455749512,1.0408587455749512
404,1.0,0.0,0.0,1e-04,0.9347826242446899,1.0408587455749512,1.0408587455749512
405,1.0,0.0,0.0,1e-04,0.9347826242446899,1.0408587455749512,1.0408587455749512
406,1.0,0.0,0.0,1e-04,0.9347826242446899,1.0408587455749512,1.0408587455749512
407,1.0,0.0,0.0,1e-04,0.9347826242446899,1.0408587455749512,1.0408587455749512
408,1.0,0.0,0.0,1e-04,0.9347826242446899,1.0408587455749512,1.0408587455749512
409,1.0,0.0,0.0,1e-04,0.9347826242446899,1.0408587455749512,1.0408587455749512
410,1.0,0.0,0.0,1e-04,0.9347826242446899,1.0408587455749512,1.0408587455749512
411,1.0,0.0,0.0,1e-04,0.9347826242446899,1.0408587455749512,1.0408587455749512
412,1.0,0.0,0.0,1e-04,0.9347826242446899,1.0408587455749512,1.0408587455749512
413,1.0,0.0,0.0,1e-04,0.9347826242446899,1.0408587455749512,1.0408587455749512
414,1.0,0.0,0.0,1e-04,0.9347826242446899,1.0408587455749512,1.0408587455749512
415,1.0,0.0,0.0,1e-04,0.9347826242446899,1.0408587455749512,1.0408587455749512
416,1.0,0.0,0.0,1e-04,0.9347826242446899,1.0408587455749512,1.0408587455749512
417,1.0,0.0,0.0,1e-04,0.9347826242446899,1.0408587455749512,1.0408587455749512
418,1.0,0.0,0.0,1e-04,0.9347826242446899,1.0408587455749512,1.0408587455749512
419,1.0,0.0,0.0,1e-04,0.9347826242446899,1.0408587455749512,1.0408587455749512
420,1.0,0.0,0.0,1e-04,0.9347826242446899,1.0408587455749512,1.0408587455749512
421,1.0,0.0,0.0,1e-04,0.9347826242446899,1.0408587455749512,1.0408587455749512
422,1.0,0.0,0.0,1e-04,0.9347826242446899,1.0408587455749512,1.0408587455749512
423,1.0,0.0,0.0,1e-04,0.9347826242446899,1.0408587455749512,1.0408587455749512
424,1.0,0.0,0.0,1e-04,0.9347826242446899,1.0408587455749512,1.0408587455749512
425,1.0,0.0,0.0,1e-04,0.9347826242446899,1.0408587455749512,1.0408587455749512
426,1.0,0.0,0.0,1e-04,0.9347826242446899,1.0408587455749512,1.0408587455749512
427,1.0,0.0,0.0,1e-04,0.9347826242446899,1.0408587455749512,1.0408587455749512
428,1.0,0.0,0.0,1e-04,0.9347826242446899,1.0408587455749512,1.0408587455749512
429,1.0,0.0,0.0,1e-04,0.9347826242446899,1.0408587455749512,1.0408587455749512
430,1.0,0.0,0.0,1e-04,0.9347826242446899,1.0408587455749512,1.0408587455749512
431,1.0,0.0,0.0,1e-04,0.9347826242446899,1.0408587455749512,1.0408587455749512
432,1.0,0.0,0.0,1e-04,0.9347826242446899,1.0408587455749512,1.0408587455749512
433,1.0,0.0,0.0,1e-04,0.9347826242446899,1.0408587455749512,1.0408587455749512
434,1.0,0.0,0.0,1e-04,0.9347826242446899,1.0408587455749512,1.0408587455749512
435,1.0,0.0,0.0,1e-04,0.9347826242446899,1.0408587455749512,1.0408587455749512
436,1.0,0.0,0.0,1e-04,0.9347826242446899,1.0408587455749512,1.0408587455749512
437,1.0,0.0,0.0,1e-04,0.9347826242446899,1.0408587455749512,1.0408587455749512
438,1.0,0.0,0.0,1e-04,0.9347826242446899,1.0408587455749512,1.0408587455749512
439,1.0,0.0,0.0,1e-04,0.9347826242446899,1.0408587455749512,1.0408587455749512
440,1.0,0.0,0.0,1e-04,0.9347826242446899,1.0408587455749512,1.0408587455749512
441,1.0,0.0,0.0,1e-04,0.9347826242446899,1.0408587455749512,1.0408587455749512
442,1.0,0.0,0.0,1e-04,0.9347826242446899,1.0408587455749512,1.0408587455749512
443,1.0,0.0,0.0,1e-04,0.9347826242446899,1.0408587455749512,1.0408587455749512
444,1.0,0.0,0.0,1e-04,0.9347826242446899,1.0408587455749512,1.0408587455749512
445,1.0,0.0,0.0,1e-04,0.9347826242446899,1.0408587455749512,1.0408587455749512
446,1.0,0.0,0.0,1e-04,0.9347826242446899,1.0408587455749512,1.0408587455749512
447,1.0,0.0,0.0,1e-04,0.9347826242446899,1.0408587455749512,1.0408587455749512
448,1.0,0.0,0.0,1e-04,0.9347826242446899,1.0408587455749512,1.0408587455749512
449,1.0,0.0,0.0,1e-04,0.9347826242446899,1.0408587455749512,1.0408587455749512
450,1.0,0.0,0.0,1e-04,0.9347826242446899,1.0408587455749512,1.0408587455749512
451,1.0,0.0,0.0,1e-04,0.9347826242446899,1.0408587455749512,1.0408587455749512
452,1.0,0.0,0.0,1e-04,0.9347826242446899,1.0408587455749512,1.0408587455749512
453,1.0,0.0,0.0,1e-04,0.9347826242446899,1.0408587455749512,1.0408587455749512
454,1.0,0.0,0.0,1e-04,0.9347826242446899,1.0408587455749512,1.0408587455749512
455,1.0,0.0,0.0,1e-04,0.9347826242446899,1.0408587455749512,1.0408587455749512
456,1.0,0.0,0.0,1e-04,0.9347826242446899,1.0408587455749512,1.0408587455749512
457,1.0,0.0,0.0,1e-04,0.9347826242446899,1.0408587455749512,1.0408587455749512
458,1.0,0.0,0.0,1e-04,0.9347826242446899,1.0408587455749512,1.0408587455749512
459,1.0,0.0,0.0,1e-04,0.9347826242446899,1.0408587455749512,1.0408587455749512
460,1.0,0.0,0.0,1e-04,0.9347826242446899,1.0408587455749512,1.0408587455749512
461,1.0,0.0,0.0,1e-04,0.9347826242446899,1.0408587455749512,1.0408587455749512
462,1.0,0.0,0.0,1e-04,0.9347826242446899,1.0408587455749512,1.0408587455749512
463,1.0,0.0,0.0,1e-04,0.9347826242446899,1.0408587455749512,1.0408587455749512
464,1.0,0.0,0.0,1e-04,0.9347826242446899,1.0408587455749512,1.0408587455749512
465,1.0,0.0,0.0,1e-04,0.9347826242446899,1.0408587455749512,1.0408587455749512
466,1.0,0.0,0.0,1e-04,0.9347826242446899,1.0408587455749512,1.0408587455749512
467,1.0,0.0,0.0,1e-04,0.9347826242446899,1.0408587455749512,1.0408587455749512
468,1.0,0.0,0.0,1e-04,0.9347826242446899,1.0408587455749512,1.0408587455749512
469,1.0,0.0,0.0,1e-04,0.9347826242446899,1.0408587455749512,1.0408587455749512
470,1.0,0.0,0.0,1e-04,0.9347826242446899,1.0408587455749512,1.0408587455749512
471,1.0,0.0,0.0,1e-04,0.9347826242446899,1.0408587455749512,1.0408587455749512
472,1.0,0.0,0.0,1e-04,0.9347826242446899,1.0408587455749512,1.0408587455749512
473,1.0,0.0,0.0,1e-04,0.9347826242446899,1.0408587455749512,1.0408587455749512
474,1.0,0.0,0.0,1e-04,0.9347826242446899,1.0408587455749512,1.0408587455749512
475,1.0,0.0,0.0,1e-04,0.9347826242446899,1.0408587455749512,1.0408587455749512
476,1.0,0.0,0.0,1e-04,0.9347826242446899,1.0408587455749512,1.0408587455749512
477,1.0,0.0,0.0,1e-04,0.9347826242446899,1.0408587455749512,1.0408587455749512
478,1.0,0.0,0.0,1e-04,0.9347826242446899,1.0408587455749512,1.0408587455749512
479,1.0,0.0,0.0,1e-04,0.9347826242446899,1.0408587455749512,1.0408587455749512
480,1.0,0.0,0.0,1e-04,0.9347826242446899,1.0408587455749512,1.0408587455749512
481,1.0,0.0,0.0,1e-04,0.9347826242446899,1.0408587455749512,1.0408587455749512
482,1.0,0.0,0.0,1e-04,0.9347826242446899,1.0408587455749512,1.0408587455749512
483,1.0,0.0,0.0,1e-04,0.9347826242446899,1.0408587455749512,1.0408587455749512
484,1.0,0.0,0.0,1e-04,0.9347826242446899,1.0408587455749512,1.0408587455749512
485,1.0,0.0,0.0,1e-04,0.9347826242446899,1.0408587455749512,1.0408587455749512
486,1.0,0.0,0.0,1e-04,0.9347826242446899,1.0408587455749512,1.0408587455749512
487,1.0,0.0,0.0,1e-04,0.9347826242446899,1.0408587455749512,1.0408587455749512
488,1.0,0.0,0.0,1e-04,0.9347826242446899,1.0408587455749512,1.0408587455749512
489,1.0,0.0,0.0,1e-04,0.9347826242446899,1.0408587455749512,1.0408587455749512
490,1.0,0.0,0.0,1e-04,0.9347826242446899,1.0408587455749512,1.0408587455749512
491,1.0,0.0,0.0,1e-04,0.9347826242446899,1.0408587455749512,1.0408587455749512
492,1.0,0.0,0.0,1e-04,0.9347826242446899,1.0408587455749512,1.0408587455749512
493,1.0,0.0,0.0,1e-04,0.9347826242446899,1.0408587455749512,1.0408587455749512
494,1.0,0.0,0.0,1e-04,0.9347826242446899,1.0408587455749512,1.0408587455749512
495,1.0,0.0,0.0,1e-04,0.9347826242446899,1.0408587455749512,1.0408587455749512
496,1.0,0.0,0.0,1e-04,0.9347826242446899,1.0408587455749512,1.0408587455749512
497,1.0,0.0,0.0,1e-04,0.9347826242446899,1.0408587455749512,1.0408587455749512
498,1.0,0.0,0.0,1e-04,0.9347826242446899,1.0408587455749512,1.0408587455749512
499,1.0,0.0,0.0,1e-04,0.9347826242446899,1.0408587455749512,1.0408587455749512
500,1.0,0.0,0.0,1e-04,0.9347826242446899,1.0408587455749512,1.0408587455749512
501,1.0,0.0,0.0,1e-04,0.9347826242446899,1.0408587455749512,1.0408587455749512
502,1.0,0.0,0.0,1e-04,0.9347826242446899,1.0408587455749512,1.0408587455749512
503,1.0,0.0,0.0,1e-04,0.9347826242446899,1.0408587455749512,1.0408587455749512
504,1.0,0.0,0.0,1e-04,0.9347826242446899,1.0408587455749512,1.0408587455749512
505,1.0,0.0,0.0,1e-04,0.9347826242446899,1.0408587455749512,1.0408587455749512
506,1.0,0.0,0.0,1e-04,0.9347826242446899,1.0408587455749512,1.0408587455749512
507,1.0,0.0,0.0,1e-04,0.9347826242446899,1.0408587455749512,1.0408587455749512
508,1.0,0.0,0.0,1e-04,0.9347826242446899,1.0408587455749512,1.0408587455749512
509,1.0,0.0,0.0,1e-04,0.9347826242446899,1.0408587455749512,1.0408587455749512
510,1.0,0.0,0.0,1e-04,0.9347826242446899,1.0408587455749512,1.0408587455749512
511,1.0,0.0,0.0,1e-04,0.9347826242446899,1.0408587455749512,1.0408587455749512
512,1.0,0.0,0.0,1e-04,0.9347826242446899,1.0408587455749512,1.0408587455749512
513,1.0,0.0,0.0,1e-04,0.9347826242446899,1.0408587455749512,1.0408587455749512
514,1.0,0.0,0.0,1e-04,0.9347826242446899,1.0408587455749512,1.0408587455749512
515,1.0,0.0,0.0,1e-04,0.9347826242446899,1.0408587455749512,1.0408587455749512
516,1.0,0.0,0.0,1e-04,0.9347826242446899,1.0408587455749512,1.0408587455749512
517,1.0,0.0,0.0,1e-04,0.9347826242446899,1.0408587455749512,1.0408587455749512
518,1.0,0.0,0.0,1e-04,0.9347826242446899,1.0408587455749512,1.0408587455749512
519,1.0,0.0,0.0,1e-04,0.9347826242446899,1.0408587455749512,1.0408587455749512
520,1.0,0.0,0.0,1e-04,0.9347826242446899,1.0408587455749512,1.0408587455749512
521,1.0,0.0,0.0,1e-04,0.9347826242446899,1.0408587455749512,1.0408587455749512
522,1.0,0.0,0.0,1e-04,0.9347826242446899,1.0408587455749512,1.0408587455749512
523,1.0,0.0,0.0,1e-04,0.9347826242446899,1.0408587455749512,1.0408587455749512
524,1.0,0.0,0.0,1e-04,0.9347826242446899,1.0408587455749512,1.0408587455749512
525,1.0,0.0,0.0,1e-04,0.9347826242446899,1.0408587455749512,1.0408587455749512
526,1.0,0.0,0.0,1e-04,0.9347826242446899,1.0408587455749512,1.0408587455749512
527,1.0,0.0,0.0,1e-04,0.9347826242446899,1.0408587455749512,1.0408587455749512
528,1.0,0.0,0.0,1e-04,0.9347826242446899,1.0408587455749512,1.0408587455749512
529,1.0,0.0,0.0,1e-04,0.9347826242446899,1.0408587455749512,1.0408587455749512
530,1.0,0.0,0.0,1e-04,0.9347826242446899,1.0408587455749512,1.0408587455749512
531,1.0,0.0,0.0,1e-04,0.9347826242446899,1.0408587455749512,1.0408587455749512
532,1.0,0.0,0.0,1e-04,0.9347826242446899,1.0408587455749512,1.0408587455749512
533,1.0,0.0,0.0,1e-04,0.9347826242446899,1.0408587455749512,1.0408587455749512
534,1.0,0.0,0.0,1e-04,0.9347826242446899,1.0408587455749512,1.0408587455749512
535,1.0,0.0,0.0,1e-04,0.9347826242446899,1.0408587455749512,1.0408587455749512
536,1.0,0.0,0.0,1e-04,0.9347826242446899,1.0408587455749512,1.0408587455749512
537,1.0,0.0,0.0,1e-04,0.9347826242446899,1.0408587455749512,1.0408587455749512
538,1.0,0.0,0.0,1e-04,0.9347826242446899,1.0408587455749512,1.0408587455749512
539,1.0,0.0,0.0,1e-04,0.9347826242446899,1.0408587455749512,1.0408587455749512
540,1.0,0.0,0.0,1e-04,0.9347826242446899,1.0408587455749512,1.0408587455749512
541,1.0,0.0,0.0,1e-04,0.9347826242446899,1.0408587455749512,1.0408587455749512
542,1.0,0.0,0.0,1e-04,0.9347826242446899,1.0408587455749512,1.0408587455749512
543,1.0,0.0,0.0,1e-04,0.9347826242446899,1.0408587455749512,1.0408587455749512
544,1.0,0.0,0.0,1e-04,0.9347826242446899,1.0408587455749512,1.0408587455749512
545,1.0,0.0,0.0,1e-04,0.9347826242446899,1.0408587455749512,1.0408587455749512
546,1.0,0.0,0.0,1e-04,0.9347826242446899,1.0408587455749512,1.0408587455749512
547,1.0,0.0,0.0,1e-04,0.9347826242446899,1.0408587455749512,1.0408587455749512
548,1.0,0.0,0.0,1e-04,0.9347826242446899,1.0408587455749512,1.0408587455749512
549,1.0,0.0,0.0,1e-04,0.9347826242446899,1.0408587455749512,1.0408587455749512
550,1.0,0.0,0.0,1e-04,0.9347826242446899,1.0408587455749512,1.0408587455749512
551,1.0,0.0,0.0,1e-04,0.9347826242446899,1.0408587455749512,1.0408587455749512
552,1.0,0.0,0.0,1e-04,0.9347826242446899,1.0408587455749512,1.0408587455749512
553,1.0,0.0,0.0,1e-04,0.9347826242446899,1.0408587455749512,1.0408587455749512
554,1.0,0.0,0.0,1e-04,0.9347826242446899,1.0408587455749512,1.0408587455749512
555,1.0,0.0,0.0,1e-04,0.9347826242446899,1.0408587455749512,1.0408587455749512
556,1.0,0.0,0.0,1e-04,0.9347826242446899,1.0408587455749512,1.0408587455749512
557,1.0,0.0,0.0,1e-04,0.9347826242446899,1.0408587455749512,1.0408587455749512
558,1.0,0.0,0.0,1e-04,0.9347826242446899,1.0408587455749512,1.0408587455749512
559,1.0,0.0,0.0,1e-04,0.9347826242446899,1.0408587455749512,1.0408587455749512
560,1.0,0.0,0.0,1e-04,0.9347826242446899,1.0408587455749512,1.0408587455749512
561,1.0,0.0,0.0,1e-04,0.9347826242446899,1.0408587455749512,1.0408587455749512
562,1.0,0.0,0.0,1e-04,0.9347826242446899,1.0408587455749512,1.0408587455749512
563,1.0,0.0,0.0,1e-04,0.9347826242446899,1.0408587455749512,1.0408587455749512
564,1.0,0.0,0.0,1e-04,0.9347826242446899,1.0408587455749512,1.0408587455749512
565,1.0,0.0,0.0,1e-04,0.9347826242446899,1.0408587455749512,1.0408587455749512
566,1.0,0.0,0.0,1e-04,0.9347826242446899,1.0408587455749512,1.0408587455749512
567,1.0,0.0,0.0,1e-04,0.9347826242446899,1.0408587455749512,1.0408587455749512
568,1.0,0.0,0.0,1e-04,0.9347826242446899,1.0408587455749512,1.0408587455749512
569,1.0,0.0,0.0,1e-04,0.9347826242446899,1.0408587455749512,1.0408587455749512
570,1.0,0.0,0.0,1e-04,0.9347826242446899,1.0408587455749512,1.0408587455749512
571,1.0,0.0,0.0,1e-04,0.9347826242446899,1.0408587455749512,1.0408587455749512
572,1.0,0.0,0.0,1e-04,0.9347826242446899,1.0408587455749512,1.0408587455749512
573,1.0,0.0,0.0,1e-04,0.9347826242446899,1.0408587455749512,1.0408587455749512
574,1.0,0.0,0.0,1e-04,0.9347826242446899,1.0408587455749512,1.0408587455749512
575,1.0,0.0,0.0,1e-04,0.9347826242446899,1.0408587455749512,1.0408587455749512
576,1.0,0.0,0.0,1e-04,0.9347826242446899,1.0408587455749512,1.0408587455749512
577,1.0,0.0,0.0,1e-04,0.9347826242446899,1.0408587455749512,1.0408587455749512
578,1.0,0.0,0.0,1e-04,0.9347826242446899,1.0408587455749512,1.0408587455749512
579,1.0,0.0,0.0,1e-04,0.9347826242446899,1.0408587455749512,1.0408587455749512
580,1.0,0.0,0.0,1e-04,0.9347826242446899,1.0408587455749512,1.0408587455749512
581,1.0,0.0,0.0,1e-04,0.9347826242446899,1.0408587455749512,1.0408587455749512
582,1.0,0.0,0.0,1e-04,0.9347826242446899,1.0408587455749512,1.0408587455749512
583,1.0,0.0,0.0,1e-04,0.9347826242446899,1.0408587455749512,1.0408587455749512
584,1.0,0.0,0.0,1e-04,0.9347826242446899,1.0408587455749512,1.0408587455749512
585,1.0,0.0,0.0,1e-04,0.9347826242446899,1.0408587455749512,1.0408587455749512
586,1.0,0.0,0.0,1e-04,0.9347826242446899,1.0408587455749512,1.0408587455749512
587,1.0,0.0,0.0,1e-04,0.9347826242446899,1.0408587455749512,1.0408587455749512
588,1.0,0.0,0.0,1e-04,0.9347826242446899,1.0408587455749512,1.0408587455749512
589,1.0,0.0,0.0,1e-04,0.9347826242446899,1.0408587455749512,1.0408587455749512
590,1.0,0.0,0.0,1e-04,0.9347826242446899,1.0408587455749512,1.0408587455749512
591,1.0,0.0,0.0,1e-04,0.9347826242446899,1.0408587455749512,1.0408587455749512
592,1.0,0.0,0.0,1e-04,0.9347826242446899,1.0408587455749512,1.0408587455749512
593,1.0,0.0,0.0,1e-04,0.9347826242446899,1.0408587455749512,1.0408587455749512
594,1.0,0.0,0.0,1e-04,0.9347826242446899,1.0408587455749512,1.0408587455749512
595,1.0,0.0,0.0,1e-04,0.9347826242446899,1.0408587455749512,1.0408587455749512
596,1.0,0.0,0.0,1e-04,0.9347826242446899,1.0408587455749512,1.0408587455749512
597,1.0,0.0,0.0,1e-04,0.9347826242446899,1.0408587455749512,1.0408587455749512
598,1.0,0.0,0.0,1e-04,0.9347826242446899,1.0408587455749512,1.0408587455749512
599,1.0,0.0,0.0,1e-04,0.9347826242446899,1.0408587455749512,1.0408587455749512
600,1.0,0.0,0.0,1e-04,0.9347826242446899,1.0408587455749512,1.0408587455749512
601,1.0,0.0,0.0,1e-04,0.9347826242446899,1.0408587455749512,1.0408587455749512
602,1.0,0.0,0.0,1e-04,0.9347826242446899,1.0408587455749512,1.0408587455749512
603,1.0,0.0,0.0,1e-04,0.9347826242446899,1.0408587455749512,1.0408587455749512
604,1.0,0.0,0.0,1e-04,0.9347826242446899,1.0408587455749512,1.0408587455749512
605,1.0,0.0,0.0,1e-04,0.9347826242446899,1.0408587455749512,1.0408587455749512
606,1.0,0.0,0.0,1e-04,0.9347826242446899,1.0408587455749512,1.0408587455749512
607,1.0,0.0,0.0,1e-04,0.9347826242446899,1.0408587455749512,1.0408587455749512
608,1.0,0.0,0.0,1e-04,0.9347826242446899,1.0408587455749512,1.0408587455749512
609,1.0,0.0,0.0,1e-04,0.9347826242446899,1.0408587455749512,1.0408587455749512
610,1.0,0.0,0.0,1e-04,0.9347826242446899,1.0408587455749512,1.0408587455749512
611,1.0,0.0,0.0,1e-04,0.9347826242446899,1.0408587455749512,1.0408587455749512
612,1.0,0.0,0.0,1e-04,0.9347826242446899,1.0408587455749512,1.0408587455749512
613,1.0,0.0,0.0,1e-04,0.9347826242446899,1.0408587455749512,1.0408587455749512
614,1.0,0.0,0.0,1e-04,0.9347826242446899,1.0408587455749512,1.0408587455749512
615,1.0,0.0,0.0,1e-04,0.9347826242446899,1.0408587455749512,1.0408587455749512
616,1.0,0.0,0.0,1e-04,0.9347826242446899,1.0408587455749512,1.0408587455749512
617,1.0,0.0,0.0,1e-04,0.9347826242446899,1.0408587455749512,1.0408587455749512
618,1.0,0.0,0.0,1e-04,0.9347826242446899,1.0408587455749512,1.0408587455749512
619,1.0,0.0,0.0,1e-04,0.9347826242446899,1.0408587455749512,1.0408587455749512
620,1.0,0.0,0.0,1e-04,0.9347826242446899,1.0408587455749512,1.0408587455749512
621,1.0,0.0,0.0,1e-04,0.9347826242446899,1.0408587455749512,1.0408587455749512
622,1.0,0.0,0.0,1e-04,0.9347826242446899,1.0408587455749512,1.0408587455749512
623,1.0,0.0,0.0,1e-04,0.9347826242446899,1.0408587455749512,1.0408587455749512
624,1.0,0.0,0.0,1e-04,0.9347826242446899,1.0408587455749512,1.0408587455749512
625,1.0,0.0,0.0,1e-04,0.9347826242446899,1.0408587455749512,1.0408587455749512
626,1.0,0.0,0.0,1e-04,0.9347826242446899,1.0408587455749512,1.0408587455749512
627,1.0,0.0,0.0,1e-04,0.9347826242446899,1.0408587455749512,1.0408587455749512
628,1.0,0.0,0.0,1e-04,0.9347826242446899,1.0408587455749512,1.0408587455749512
629,1.0,0.0,0.0,1e-04,0.9347826242446899,1.0408587455749512,1.0408587455749512
630,1.0,0.0,0.0,1e-04,0.9347826242446899,1.0408587455749512,1.0408587455749512
631,1.0,0.0,0.0,1e-04,0.9347826242446899,1.0408587455749512,1.0408587455749512
632,1.0,0.0,0.0,1e-04,0.9347826242446899,1.0408587455749512,1.0408587455749512
633,1.0,0.0,0.0,1e-04,0.9347826242446899,1.0408587455749512,1.0408587455749512
634,1.0,0.0,0.0,1e-04,0.9347826242446899,1.0408587455749512,1.0408587455749512
635,1.0,0.0,0.0,1e-04,0.9347826242446899,1.0408587455749512,1.0408587455749512
636,1.0,0.0,0.0,1e-04,0.9347826242446899,1.0408587455749512,1.0408587455749512
637,1.0,0.0,0.0,1e-04,0.9347826242446899,1.0408587455749512,1.0408587455749512
638,1.0,0.0,0.0,1e-04,0.9347826242446899,1.0408587455749512,1.0408587455749512
639,1.0,0.0,0.0,1e-04,0.9347826242446899,1.0408587455749512,1.0408587455749512
640,1.0,0.0,0.0,1e-04,0.9347826242446899,1.0408587455749512,1.0408587455749512
641,1.0,0.0,0.0,1e-04,0.9347826242446899,1.0408587455749512,1.0408587455749512
642,1.0,0.0,0.0,1e-04,0.9347826242446899,1.0408587455749512,1.0408587455749512
643,1.0,0.0,0.0,1e-04,0.9347826242446899,1.0408587455749512,1.0408587455749512
644,1.0,0.0,0.0,1e-04,0.9347826242446899,1.0408587455749512,1.0408587455749512
645,1.0,0.0,0.0,1e-04,0.9347826242446899,1.0408587455749512,1.0408587455749512
646,1.0,0.0,0.0,1e-04,0.9347826242446899,1.0408587455749512,1.0408587455749512
647,1.0,0.0,0.0,1e-04,0.9347826242446899,1.0408587455749512,1.0408587455749512
648,1.0,0.0,0.0,1e-04,0.9347826242446899,1.0408587455749512,1.0408587455749512
649,1.0,0.0,0.0,1e-04,0.9347826242446899,1.0408587455749512,1.0408587455749512
650,1.0,0.0,0.0,1e-04,0.9347826242446899,1.0408587455749512,1.0408587455749512
651,1.0,0.0,0.0,1e-04,0.9347826242446899,1.0408587455749512,1.0408587455749512
652,1.0,0.0,0.0,1e-04,0.9347826242446899,1.0408587455749512,1.0408587455749512
653,1.0,0.0,0.0,1e-04,0.9347826242446899,1.0408587455749512,1.0408587455749512
654,1.0,0.0,0.0,1e-04,0.9347826242446899,1.0408587455749512,1.0408587455749512
655,1.0,0.0,0.0,1e-04,0.9347826242446899,1.0408587455749512,1.0408587455749512
656,1.0,0.0,0.0,1e-04,0.9347826242446899,1.0408587455749512,1.0408587455749512
657,1.0,0.0,0.0,1e-04,0.9347826242446899,1.0408587455749512,1.0408587455749512
658,1.0,0.0,0.0,1e-04,0.9347826242446899,1.0408587455749512,1.0408587455749512
659,1.0,0.0,0.0,1e-04,0.9347826242446899,1.0408587455749512,1.0408587455749512
660,1.0,0.0,0.0,1e-04,0.9347826242446899,1.0408587455749512,1.0408587455749512
661,1.0,0.0,0.0,1e-04,0.9347826242446899,1.0408587455749512,1.0408587455749512
662,1.0,0.0,0.0,1e-04,0.9347826242446899,1.0408587455749512,1.0408587455749512
663,1.0,0.0,0.0,1e-04,0.9347826242446899,1.0408587455749512,1.0408587455749512
664,1.0,0.0,0.0,1e-04,0.9347826242446899,1.0408587455749512,1.0408587455749512
665,1.0,0.0,0.0,1e-04,0.9347826242446899,1.0408587455749512,1.0408587455749512
666,1.0,0.0,0.0,1e-04,0.9347826242446899,1.0408587455749512,1.0408587455749512
667,1.0,0.0,0.0,1e-04,0.9347826242446899,1.0408587455749512,1.0408587455749512
668,1.0,0.0,0.0,1e-04,0.9347826242446899,1.0408587455749512,1.0408587455749512
669,1.0,0.0,0.0,1e-04,0.9347826242446899,1.0408587455749512,1.0408587455749512
670,1.0,0.0,0.0,1e-04,0.9347826242446899,1.0408587455749512,1.0408587455749512
671,1.0,0.0,0.0,1e-04,0.9347826242446899,1.0408587455749512,1.0408587455749512
672,1.0,0.0,0.0,1e-04,0.9347826242446899,1.0408587455749512,1.0408587455749512
673,1.0,0.0,0.0,1e-04,0.9347826242446899,1.0408587455749512,1.0408587455749512
674,1.0,0.0,0.0,1e-04,0.9347826242446899,1.0408587455749512,1.0408587455749512
675,1.0,0.0,0.0,1e-04,0.9347826242446899,1.0408587455749512,1.0408587455749512
676,1.0,0.0,0.0,1e-04,0.9347826242446899,1.0408587455749512,1.0408587455749512
677,1.0,0.0,0.0,1e-04,0.9347826242446899,1.0408587455749512,1.0408587455749512
678,1.0,0.0,0.0,1e-04,0.9347826242446899,1.0408587455749512,1.0408587455749512
679,1.0,0.0,0.0,1e-04,0.9347826242446899,1.0408587455749512,1.0408587455749512
680,1.0,0.0,0.0,1e-04,0.9347826242446899,1.0408587455749512,1.0408587455749512
681,1.0,0.0,0.0,1e-04,0.9347826242446899,1.0408587455749512,1.0408587455749512
682,1.0,0.0,0.0,1e-04,0.9347826242446899,1.0408587455749512,1.0408587455749512
683,1.0,0.0,0.0,1e-04,0.9347826242446899,1.0408587455749512,1.0408587455749512
684,1.0,0.0,0.0,1e-04,0.9347826242446899,1.0408587455749512,1.0408587455749512
685,1.0,0.0,0.0,1e-04,0.9347826242446899,1.0408587455749512,1.0408587455749512
686,1.0,0.0,0.0,1e-04,0.9347826242446899,1.0408587455749512,1.0408587455749512
687,1.0,0.0,0.0,1e-04,0.9347826242446899,1.0408587455749512,1.0408587455749512
688,1.0,0.0,0.0,1e-04,0.9347826242446899,1.0408587455749512,1.0408587455749512
689,1.0,0.0,0.0,1e-04,0.9347826242446899,1.0408587455749512,1.0408587455749512
690,1.0,0.0,0.0,1e-04,0.9347826242446899,1.0408587455749512,1.0408587455749512
691,1.0,0.0,0.0,1e-04,0.9347826242446899,1.0408587455749512,1.0408587455749512
692,1.0,0.0,0.0,1e-04,0.9347826242446899,1.0408587455749512,1.0408587455749512
693,1.0,0.0,0.0,1e-04,0.9347826242446899,1.0408587455749512,1.0408587455749512
694,1.0,0.0,0.0,1e-04,0.9347826242446899,1.0408587455749512,1.0408587455749512
695,1.0,0.0,0.0,1e-04,0.9347826242446899,1.0408587455749512,1.0408587455749512
696,1.0,0.0,0.0,1e-04,0.9347826242446899,1.0408587455749512,1.0408587455749512
697,1.0,0.0,0.0,1e-04,0.9347826242446899,1.0408587455749512,1.0408587455749512
698,1.0,0.0,0.0,1e-04,0.9347826242446899,1.0408587455749512,1.0408587455749512
699,1.0,0.0,0.0,1e-04,0.9347826242446899,1.0408587455749512,1.0408587455749512
700,1.0,0.0,0.0,1e-04,0.9347826242446899,1.0408587455749512,1.0408587455749512
701,1.0,0.0,0.0,1e-04,0.9347826242446899,1.0408587455749512,1.0408587455749512
702,1.0,0.0,0.0,1e-04,0.9347826242446899,1.0408587455749512,1.0408587455749512
703,1.0,0.0,0.0,1e-04,0.9347826242446899,1.0408587455749512,1.0408587455749512
704,1.0,0.0,0.0,1e-04,0.9347826242446899,1.0408587455749512,1.0408587455749512
705,1.0,0.0,0.0,1e-04,0.9347826242446899,1.0408587455749512,1.0408587455749512
706,1.0,0.0,0.0,1e-04,0.9347826242446899,1.0408587455749512,1.0408587455749512
707,1.0,0.0,0.0,1e-04,0.9347826242446899,1.0408587455749512,1.0408587455749512
708,1.0,0.0,0.0,1e-04,0.9347826242446899,1.0408587455749512,1.0408587455749512
709,1.0,0.0,0.0,1e-04,0.9347826242446899,1.0408587455749512,1.0408587455749512
710,1.0,0.0,0.0,1e-04,0.9347826242446899,1.0408587455749512,1.0408587455749512
711,1.0,0.0,0.0,1e-04,0.9347826242446899,1.0408587455749512,1.0408587455749512
712,1.0,0.0,0.0,1e-04,0.9347826242446899,1.0408587455749512,1.0408587455749512
713,1.0,0.0,0.0,1e-04,0.9347826242446899,1.0408587455749512,1.0408587455749512
714,1.0,0.0,0.0,1e-04,0.9347826242446899,1.0408587455749512,1.0408587455749512
715,1.0,0.0,0.0,1e-04,0.9347826242446899,1.0408587455749512,1.0408587455749512
716,1.0,0.0,0.0,1e-04,0.9347826242446899,1.0408587455749512,1.0408587455749512
717,1.0,0.0,0.0,1e-04,0.9347826242446899,1.0408587455749512,1.0408587455749512
718,1.0,0.0,0.0,1e-04,0.9347826242446899,1.0408587455749512,1.0408587455749512
719,1.0,0.0,0.0,1e-04,0.9347826242446899,1.0408587455749512,1.0408587455749512
720,1.0,0.0,0.0,1e-04,0.9347826242446899,1.0408587455749512,1.0408587455749512
721,1.0,0.0,0.0,1e-04,0.9347826242446899,1.0408587455749512,1.0408587455749512
722,1.0,0.0,0.0,1e-04,0.9347826242446899,1.0408587455749512,1.0408587455749512
723,1.0,0.0,0.0,1e-04,0.9347826242446899,1.0408587455749512,1.0408587455749512
724,1.0,0.0,0.0,1e-04,0.9347826242446899,1.0408587455749512,1.0408587455749512
725,1.0,0.0,0.0,1e-04,0.9347826242446899,1.0408587455749512,1.0408587455749512
726,1.0,0.0,0.0,1e-04,0.9347826242446899,1.0408587455749512,1.0408587455749512
727,1.0,0.0,0.0,1e-04,0.9347826242446899,1.0408587455749512,1.0408587455749512
728,1.0,0.0,0.0,1e-04,0.9347826242446899,1.0408587455749512,1.0408587455749512
729,1.0,0.0,0.0,1e-04,0.9347826242446899,1.0408587455749512,1.0408587455749512
730,1.0,0.0,0.0,1e-04,0.9347826242446899,1.0408587455749512,1.0408587455749512
731,1.0,0.0,0.0,1e-04,0.9347826242446899,1.0408587455749512,1.0408587455749512
732,1.0,0.0,0.0,1e-04,0.9347826242446899,1.0408587455749512,1.0408587455749512
733,1.0,0.0,0.0,1e-04,0.9347826242446899,1.0408587455749512,1.0408587455749512
734,1.0,0.0,0.0,1e-04,0.9347826242446899,1.0408587455749512,1.0408587455749512
735,1.0,0.0,0.0,1e-04,0.9347826242446899,1.0408587455749512,1.0408587455749512
736,1.0,0.0,0.0,1e-04,0.9347826242446899,1.0408587455749512,1.0408587455749512
737,1.0,0.0,0.0,1e-04,0.9347826242446899,1.0408587455749512,1.0408587455749512
738,1.0,0.0,0.0,1e-04,0.9347826242446899,1.0408587455749512,1.0408587455749512
739,1.0,0.0,0.0,1e-04,0.9347826242446899,1.0408587455749512,1.0408587455749512
740,1.0,0.0,0.0,1e-04,0.9347826242446899,1.0408587455749512,1.0408587455749512
741,1.0,0.0,0.0,1e-04,0.9347826242446899,1.0408587455749512,1.0408587455749512
742,1.0,0.0,0.0,1e-04,0.9347826242446899,1.0408587455749512,1.0408587455749512
743,1.0,0.0,0.0,1e-04,0.9347826242446899,1.0408587455749512,1.0408587455749512
744,1.0,0.0,0.0,1e-04,0.9347826242446899,1.0408587455749512,1.0408587455749512
745,1.0,0.0,0.0,1e-04,0.9347826242446899,1.0408587455749512,1.0408587455749512
746,1.0,0.0,0.0,1e-04,0.9347826242446899,1.0408587455749512,1.0408587455749512
747,1.0,0.0,0.0,1e-04,0.9347826242446899,1.0408587455749512,1.0408587455749512
748,1.0,0.0,0.0,1e-04,0.9347826242446899,1.0408587455749512,1.0408587455749512
749,1.0,0.0,0.0,1e-04,0.9347826242446899,1.0408587455749512,1.0408587455749512
750,1.0,0.0,0.0,1e-04,0.9347826242446899,1.0408587455749512,1.0408587455749512
751,1.0,0.0,0.0,1e-04,0.9347826242446899,1.0408587455749512,1.0408587455749512
752,1.0,0.0,0.0,1e-04,0.9347826242446899,1.0408587455749512,1.0408587455749512
753,1.0,0.0,0.0,1e-04,0.9347826242446899,1.0408587455749512,1.0408587455749512
754,1.0,0.0,0.0,1e-04,0.9347826242446899,1.0408587455749512,1.0408587455749512
755,1.0,0.0,0.0,1e-04,0.9347826242446899,1.0408587455749512,1.0408587455749512
756,1.0,0.0,0.0,1e-04,0.9347826242446899,1.0408587455749512,1.0408587455749512
757,1.0,0.0,0.0,1e-04,0.9347826242446899,1.0408587455749512,1.0408587455749512
758,1.0,0.0,0.0,1e-04,0.9347826242446899,1.0408587455749512,1.0408587455749512
759,1.0,0.0,0.0,1e-04,0.9347826242446899,1.0408587455749512,1.0408587455749512
760,1.0,0.0,0.0,1e-04,0.9347826242446899,1.0408587455749512,1.0408587455749512
761,1.0,0.0,0.0,1e-04,0.9347826242446899,1.0408587455749512,1.0408587455749512
762,1.0,0.0,0.0,1e-04,0.9347826242446899,1.0408587455749512,1.0408587455749512
763,1.0,0.0,0.0,1e-04,0.9347826242446899,1.0408587455749512,1.0408587455749512
764,1.0,0.0,0.0,1e-04,0.9347826242446899,1.0408587455749512,1.0408587455749512
765,1.0,0.0,0.0,1e-04,0.9347826242446899,1.0408587455749512,1.0408587455749512
766,1.0,0.0,0.0,1e-04,0.9347826242446899,1.0408587455749512,1.0408587455749512
767,1.0,0.0,0.0,1e-04,0.9347826242446899,1.0408587455749512,1.0408587455749512
768,1.0,0.0,0.0,1e-04,0.9347826242446899,1.0408587455749512,1.0408587455749512
769,1.0,0.0,0.0,1e-04,0.9347826242446899,1.0408587455749512,1.0408587455749512
770,1.0,0.0,0.0,1e-04,0.9347826242446899,1.0408587455749512,1.0408587455749512
771,1.0,0.0,0.0,1e-04,0.9347826242446899,1.0408587455749512,1.0408587455749512
772,1.0,0.0,0.0,1e-04,0.9347826242446899,1.0408587455749512,1.0408587455749512
773,1.0,0.0,0.0,1e-04,0.9347826242446899,1.0408587455749512,1.0408587455749512
774,1.0,0.0,0.0,1e-04,0.9347826242446899,1.0408587455749512,1.0408587455749512
775,1.0,0.0,0.0,1e-04,0.9347826242446899,1.0408587455749512,1.0408587455749512
776,1.0,0.0,0.0,1e-04,0.9347826242446899,1.0408587455749512,1.0408587455749512
777,1.0,0.0,0.0,1e-04,0.9347826242446899,1.0408587455749512,1.0408587455749512
778,1.0,0.0,0.0,1e-04,0.9347826242446899,1.0408587455749512,1.0408587455749512
779,1.0,0.0,0.0,1e-04,0.9347826242446899,1.0408587455749512,1.0408587455749512
780,1.0,0.0,0.0,1e-04,0.9347826242446899,1.0408587455749512,1.0408587455749512
781,1.0,0.0,0.0,1e-04,0.9347826242446899,1.0408587455749512,1.0408587455749512
782,1.0,0.0,0.0,1e-04,0.9347826242446899,1.0408587455749512,1.0408587455749512
783,1.0,0.0,0.0,1e-04,0.9347826242446899,1.0408587455749512,1.0408587455749512
784,1.0,0.0,0.0,1e-04,0.9347826242446899,1.0408587455749512,1.0408587455749512
785,1.0,0.0,0.0,1e-04,0.9347826242446899,1.0408587455749512,1.0408587455749512
786,1.0,0.0,0.0,1e-04,0.9347826242446899,1.0408587455749512,1.0408587455749512
787,1.0,0.0,0.0,1e-04,0.9347826242446899,1.0408587455749512,1.0408587455749512
788,1.0,0.0,0.0,1e-04,0.9347826242446899,1.0408587455749512,1.0408587455749512
789,1.0,0.0,0.0,1e-04,0.9347826242446899,1.0408587455749512,1.0408587455749512
790,1.0,0.0,0.0,1e-04,0.9347826242446899,1.0408587455749512,1.0408587455749512
791,1.0,0.0,0.0,1e-04,0.9347826242446899,1.0408587455749512,1.0408587455749512
792,1.0,0.0,0.0,1e-04,0.9347826242446899,1.0408587455749512,1.0408587455749512
793,1.0,0.0,0.0,1e-04,0.9347826242446899,1.0408587455749512,1.0408587455749512
794,1.0,0.0,0.0,1e-04,0.9347826242446899,1.0408587455749512,1.0408587455749512
795,1.0,0.0,0.0,1e-04,0.9347826242446899,1.0408587455749512,1.0408587455749512
796,1.0,0.0,0.0,1e-04,0.9347826242446899,1.0408587455749512,1.0408587455749512
797,1.0,0.0,0.0,1e-04,0.9347826242446899,1.0408587455749512,1.0408587455749512
798,1.0,0.0,0.0,1e-04,0.9347826242446899,1.0408587455749512,1.0408587455749512
799,1.0,0.0,0.0,1e-04,0.9347826242446899,1.0408587455749512,1.0408587455749512
800,1.0,0.0,0.0,1e-04,0.9347826242446899,1.0408587455749512,1.0408587455749512
801,1.0,0.0,0.0,1e-04,0.9347826242446899,1.0408587455749512,1.0408587455749512
802,1.0,0.0,0.0,1e-04,0.9347826242446899,1.0408587455749512,1.0408587455749512
803,1.0,0.0,0.0,1e-04,0.9347826242446899,1.0408587455749512,1.0408587455749512
804,1.0,0.0,0.0,1e-04,0.9347826242446899,1.0408587455749512,1.0408587455749512
805,1.0,0.0,0.0,1e-04,0.9347826242446899,1.0408587455749512,1.0408587455749512
806,1.0,0.0,0.0,1e-04,0.9347826242446899,1.0408587455749512,1.0408587455749512
807,1.0,0.0,0.0,1e-04,0.9347826242446899,1.0408587455749512,1.0408587455749512
808,1.0,0.0,0.0,1e-04,0.9347826242446899,1.0408587455749512,1.0408587455749512
809,1.0,0.0,0.0,1e-04,0.9347826242446899,1.0408587455749512,1.0408587455749512
810,1.0,0.0,0.0,1e-04,0.9347826242446899,1.0408587455749512,1.0408587455749512
811,1.0,0.0,0.0,1e-04,0.9347826242446899,1.0408587455749512,1.0408587455749512
812,1.0,0.0,0.0,1e-04,0.9347826242446899,1.0408587455749512,1.0408587455749512
813,1.0,0.0,0.0,1e-04,0.9347826242446899,1.0408587455749512,1.0408587455749512
814,1.0,0.0,0.0,1e-04,0.9347826242446899,1.0408587455749512,1.0408587455749512
815,1.0,0.0,0.0,1e-04,0.9347826242446899,1.0408587455749512,1.0408587455749512
816,1.0,0.0,0.0,1e-04,0.9347826242446899,1.0408587455749512,1.0408587455749512
817,1.0,0.0,0.0,1e-04,0.9347826242446899,1.0408587455749512,1.0408587455749512
818,1.0,0.0,0.0,1e-04,0.9347826242446899,1.0408587455749512,1.0408587455749512
819,1.0,0.0,0.0,1e-04,0.9347826242446899,1.0408587455749512,1.0408587455749512
820,1.0,0.0,0.0,1e-04,0.9347826242446899,1.0408587455749512,1.0408587455749512
821,1.0,0.0,0.0,1e-04,0.9347826242446899,1.0408587455749512,1.0408587455749512
822,1.0,0.0,0.0,1e-04,0.9347826242446899,1.0408587455749512,1.0408587455749512
823,1.0,0.0,0.0,1e-04,0.9347826242446899,1.0408587455749512,1.0408587455749512
824,1.0,0.0,0.0,1e-04,0.9347826242446899,1.0408587455749512,1.0408587455749512
825,1.0,0.0,0.0,1e-04,0.9347826242446899,1.0408587455749512,1.0408587455749512
826,1.0,0.0,0.0,1e-04,0.9347826242446899,1.0408587455749512,1.0408587455749512
827,1.0,0.0,0.0,1e-04,0.9347826242446899,1.0408587455749512,1.0408587455749512
828,1.0,0.0,0.0,1e-04,0.9347826242446899,1.0408587455749512,1.0408587455749512
829,1.0,0.0,0.0,1e-04,0.9347826242446899,1.0408587455749512,1.0408587455749512
830,1.0,0.0,0.0,1e-04,0.9347826242446899,1.0408587455749512,1.0408587455749512
831,1.0,0.0,0.0,1e-04,0.9347826242446899,1.0408587455749512,1.0408587455749512
832,1.0,0.0,0.0,1e-04,0.9347826242446899,1.0408587455749512,1.0408587455749512
833,1.0,0.0,0.0,1e-04,0.9347826242446899,1.0408587455749512,1.0408587455749512
834,1.0,0.0,0.0,1e-04,0.9347826242446899,1.0408587455749512,1.0408587455749512
835,1.0,0.0,0.0,1e-04,0.9347826242446899,1.0408587455749512,1.0408587455749512
836,1.0,0.0,0.0,1e-04,0.9347826242446899,1.0408587455749512,1.0408587455749512
837,1.0,0.0,0.0,1e-04,0.9347826242446899,1.0408587455749512,1.0408587455749512
838,1.0,0.0,0.0,1e-04,0.9347826242446899,1.0408587455749512,1.0408587455749512
839,1.0,0.0,0.0,1e-04,0.9347826242446899,1.0408587455749512,1.0408587455749512
840,1.0,0.0,0.0,1e-04,0.9347826242446899,1.0408587455749512,1.0408587455749512
841,1.0,0.0,0.0,1e-04,0.9347826242446899,1.0408587455749512,1.0408587455749512
842,1.0,0.0,0.0,1e-04,0.9347826242446899,1.0408587455749512,1.0408587455749512
843,1.0,0.0,0.0,1e-04,0.9347826242446899,1.0408587455749512,1.0408587455749512
844,1.0,0.0,0.0,1e-04,0.9347826242446899,1.0408587455749512,1.0408587455749512
845,1.0,0.0,0.0,1e-04,0.9347826242446899,1.0408587455749512,1.0408587455749512
846,1.0,0.0,0.0,1e-04,0.9347826242446899,1.0408587455749512,1.0408587455749512
847,1.0,0.0,0.0,1e-04,0.9347826242446899,1.0408587455749512,1.0408587455749512
848,1.0,0.0,0.0,1e-04,0.9347826242446899,1.0408587455749512,1.0408587455749512
849,1.0,0.0,0.0,1e-04,0.9347826242446899,1.0408587455749512,1.0408587455749512
850,1.0,0.0,0.0,1e-04,0.9347826242446899,1.0408587455749512,1.0408587455749512
851,1.0,0.0,0.0,1e-04,0.9347826242446899,1.0408587455749512,1.0408587455749512
852,1.0,0.0,0.0,1e-04,0.9347826242446899,1.0408587455749512,1.0408587455749512
853,1.0,0.0,0.0,1e-04,0.9347826242446899,1.0408587455749512,1.0408587455749512
854,1.0,0.0,0.0,1e-04,0.9347826242446899,1.0408587455749512,1.0408587455749512
855,1.0,0.0,0.0,1e-04,0.9347826242446899,1.0408587455749512,1.0408587455749512
856,1.0,0.0,0.0,1e-04,0.9347826242446899,1.0408587455749512,1.0408587455749512
857,1.0,0.0,0.0,1e-04,0.9347826242446899,1.0408587455749512,1.0408587455749512
858,1.0,0.0,0.0,1e-04,0.9347826242446899,1.0408587455749512,1.0408587455749512
859,1.0,0.0,0.0,1e-04,0.9347826242446899,1.0408587455749512,1.0408587455749512
860,1.0,0.0,0.0,1e-04,0.9347826242446899,1.0408587455749512,1.0408587455749512
861,1.0,0.0,0.0,1e-04,0.9347826242446899,1.0408587455749512,1.0408587455749512
862,1.0,0.0,0.0,1e-04,0.9347826242446899,1.0408587455749512,1.0408587455749512
863,1.0,0.0,0.0,1e-04,0.9347826242446899,1.0408587455749512,1.0408587455749512
864,1.0,0.0,0.0,1e-04,0.9347826242446899,1.0408587455749512,1.0408587455749512
865,1.0,0.0,0.0,1e-04,0.9347826242446899,1.0408587455749512,1.0408587455749512
866,1.0,0.0,0.0,1e-04,0.9347826242446899,1.0408587455749512,1.0408587455749512
867,1.0,0.0,0.0,1e-04,0.9347826242446899,1.0408587455749512,1.0408587455749512
868,1.0,0.0,0.0,1e-04,0.9347826242446899,1.0408587455749512,1.0408587455749512
869,1.0,0.0,0.0,1e-04,0.9347826242446899,1.0408587455749512,1.0408587455749512
870,1.0,0.0,0.0,1e-04,0.9347826242446899,1.0408587455749512,1.0408587455749512
871,1.0,0.0,0.0,1e-04,0.9347826242446899,1.0408587455749512,1.0408587455749512
872,1.0,0.0,0.0,1e-04,0.9347826242446899,1.0408587455749512,1.0408587455749512
873,1.0,0.0,0.0,1e-04,0.9347826242446899,1.0408587455749512,1.0408587455749512
874,1.0,0.0,0.0,1e-04,0.9347826242446899,1.0408587455749512,1.0408587455749512
875,1.0,0.0,0.0,1e-04,0.9347826242446899,1.0408587455749512,1.0408587455749512
876,1.0,0.0,0.0,1e-04,0.9347826242446899,1.0408587455749512,1.0408587455749512
877,1.0,0.0,0.0,1e-04,0.9347826242446899,1.0408587455749512,1.0408587455749512
878,1.0,0.0,0.0,1e-04,0.9347826242446899,1.0408587455749512,1.0408587455749512
879,1.0,0.0,0.0,1e-04,0.9347826242446899,1.0408587455749512,1.0408587455749512
880,1.0,0.0,0.0,1e-04,0.9347826242446899,1.0408587455749512,1.0408587455749512
881,1.0,0.0,0.0,1e-04,0.9347826242446899,1.0408587455749512,1.0408587455749512
882,1.0,0.0,0.0,1e-04,0.9347826242446899,1.0408587455749512,1.0408587455749512
883,1.0,0.0,0.0,1e-04,0.9347826242446899,1.0408587455749512,1.0408587455749512
884,1.0,0.0,0.0,1e-04,0.9347826242446899,1.0408587455749512,1.0408587455749512
885,1.0,0.0,0.0,1e-04,0.9347826242446899,1.0408587455749512,1.0408587455749512
886,1.0,0.0,0.0,1e-04,0.9347826242446899,1.0408587455749512,1.0408587455749512
887,1.0,0.0,0.0,1e-04,0.9347826242446899,1.0408587455749512,1.0408587455749512
888,1.0,0.0,0.0,1e-04,0.9347826242446899,1.0408587455749512,1.0408587455749512
889,1.0,0.0,0.0,1e-04,0.9347826242446899,1.0408587455749512,1.0408587455749512
890,1.0,0.0,0.0,1e-04,0.9347826242446899,1.0408587455749512,1.0408587455749512
891,1.0,0.0,0.0,1e-04,0.9347826242446899,1.0408587455749512,1.0408587455749512
892,1.0,0.0,0.0,1e-04,0.9347826242446899,1.0408587455749512,1.0408587455749512
893,1.0,0.0,0.0,1e-04,0.9347826242446899,1.0408587455749512,1.0408587455749512
894,1.0,0.0,0.0,1e-04,0.9347826242446899,1.0408587455749512,1.0408587455749512
895,1.0,0.0,0.0,1e-04,0.9347826242446899,1.0408587455749512,1.0408587455749512
896,1.0,0.0,0.0,1e-04,0.9347826242446899,1.0408587455749512,1.0408587455749512
897,1.0,0.0,0.0,1e-04,0.9347826242446899,1.0408587455749512,1.0408587455749512
898,1.0,0.0,0.0,1e-04,0.9347826242446899,1.0408587455749512,1.0408587455749512
899,1.0,0.0,0.0,1e-04,0.9347826242446899,1.0408587455749512,1.0408587455749512
900,1.0,0.0,0.0,1e-04,0.9347826242446899,1.0408587455749512,1.0408587455749512
901,1.0,0.0,0.0,1e-04,0.9347826242446899,1.0408587455749512,1.0408587455749512
902,1.0,0.0,0.0,1e-04,0.9347826242446899,1.0408587455749512,1.0408587455749512
903,1.0,0.0,0.0,1e-04,0.9347826242446899,1.0408587455749512,1.0408587455749512
904,1.0,0.0,0.0,1e-04,0.9347826242446899,1.0408587455749512,1.0408587455749512
905,1.0,0.0,0.0,1e-04,0.9347826242446899,1.0408587455749512,1.0408587455749512
906,1.0,0.0,0.0,1e-04,0.9347826242446899,1.0408587455749512,1.0408587455749512
907,1.0,0.0,0.0,1e-04,0.9347826242446899,1.0408587455749512,1.0408587455749512
908,1.0,0.0,0.0,1e-04,0.9347826242446899,1.0408587455749512,1.0408587455749512
909,1.0,0.0,0.0,1e-04,0.9347826242446899,1.0408587455749512,1.0408587455749512
910,1.0,0.0,0.0,1e-04,0.9347826242446899,1.0408587455749512,1.0408587455749512
911,1.0,0.0,0.0,1e-04,0.9347826242446899,1.0408587455749512,1.0408587455749512
912,1.0,0.0,0.0,1e-04,0.9347826242446899,1.0408587455749512,1.0408587455749512
913,1.0,0.0,0.0,1e-04,0.9347826242446899,1.0408587455749512,1.0408587455749512
914,1.0,0.0,0.0,1e-04,0.9347826242446899,1.0408587455749512,1.0408587455749512
915,1.0,0.0,0.0,1e-04,0.9347826242446899,1.0408587455749512,1.0408587455749512
916,1.0,0.0,0.0,1e-04,0.9347826242446899,1.0408587455749512,1.0408587455749512
917,1.0,0.0,0.0,1e-04,0.9347826242446899,1.0408587455749512,1.0408587455749512
918,1.0,0.0,0.0,1e-04,0.9347826242446899,1.0408587455749512,1.0408587455749512
919,1.0,0.0,0.0,1e-04,0.9347826242446899,1.0408587455749512,1.0408587455749512
920,1.0,0.0,0.0,1e-04,0.9347826242446899,1.0408587455749512,1.0408587455749512
921,1.0,0.0,0.0,1e-04,0.9347826242446899,1.0408587455749512,1.0408587455749512
922,1.0,0.0,0.0,1e-04,0.9347826242446899,1.0408587455749512,1.0408587455749512
923,1.0,0.0,0.0,1e-04,0.9347826242446899,1.0408587455749512,1.0408587455749512
924,1.0,0.0,0.0,1e-04,0.9347826242446899,1.0408587455749512,1.0408587455749512
925,1.0,0.0,0.0,1e-04,0.9347826242446899,1.0408587455749512,1.0408587455749512
926,1.0,0.0,0.0,1e-04,0.9347826242446899,1.0408587455749512,1.0408587455749512
927,1.0,0.0,0.0,1e-04,0.9347826242446899,1.0408587455749512,1.0408587455749512
928,1.0,0.0,0.0,1e-04,0.9347826242446899,1.0408587455749512,1.0408587455749512
929,1.0,0.0,0.0,1e-04,0.9347826242446899,1.0408587455749512,1.0408587455749512
930,1.0,0.0,0.0,1e-04,0.9347826242446899,1.0408587455749512,1.0408587455749512
931,1.0,0.0,0.0,1e-04,0.9347826242446899,1.0408587455749512,1.0408587455749512
932,1.0,0.0,0.0,1e-04,0.9347826242446899,1.0408587455749512,1.0408587455749512
933,1.0,0.0,0.0,1e-04,0.9347826242446899,1.0408587455749512,1.0408587455749512
934,1.0,0.0,0.0,1e-04,0.9347826242446899,1.0408587455749512,1.0408587455749512
935,1.0,0.0,0.0,1e-04,0.9347826242446899,1.0408587455749512,1.0408587455749512
936,1.0,0.0,0.0,1e-04,0.9347826242446899,1.0408587455749512,1.0408587455749512
937,1.0,0.0,0.0,1e-04,0.9347826242446899,1.0408587455749512,1.0408587455749512
938,1.0,0.0,0.0,1e-04,0.9347826242446899,1.0408587455749512,1.0408587455749512
939,1.0,0.0,0.0,1e-04,0.9347826242446899,1.0408587455749512,1.0408587455749512
940,1.0,0.0,0.0,1e-04,0.9347826242446899,1.0408587455749512,1.0408587455749512
941,1.0,0.0,0.0,1e-04,0.9347826242446899,1.0408587455749512,1.0408587455749512
942,1.0,0.0,0.0,1e-04,0.9347826242446899,1.0408587455749512,1.0408587455749512
943,1.0,0.0,0.0,1e-04,0.9347826242446899,1.0408587455749512,1.0408587455749512
944,1.0,0.0,0.0,1e-04,0.9347826242446899,1.0408587455749512,1.0408587455749512
945,1.0,0.0,0.0,1e-04,0.9347826242446899,1.0408587455749512,1.0408587455749512
946,1.0,0.0,0.0,1e-04,0.9347826242446899,1.0408587455749512,1.0408587455749512
947,1.0,0.0,0.0,1e-04,0.9347826242446899,1.0408587455749512,1.0408587455749512
948,1.0,0.0,0.0,1e-04,0.9347826242446899,1.0408587455749512,1.0408587455749512
949,1.0,0.0,0.0,1e-04,0.9347826242446899,1.0408587455749512,1.0408587455749512
950,1.0,0.0,0.0,1e-04,0.9347826242446899,1.0408587455749512,1.0408587455749512
951,1.0,0.0,0.0,1e-04,0.9347826242446899,1.0408587455749512,1.0408587455749512
952,1.0,0.0,0.0,1e-04,0.9347826242446899,1.0408587455749512,1.0408587455749512
953,1.0,0.0,0.0,1e-04,0.9347826242446899,1.0408587455749512,1.0408587455749512
954,1.0,0.0,0.0,1e-04,0.9347826242446899,1.0408587455749512,1.0408587455749512
955,1.0,0.0,0.0,1e-04,0.9347826242446899,1.0408587455749512,1.0408587455749512
956,1.0,0.0,0.0,1e-04,0.9347826242446899,1.0408587455749512,1.0408587455749512
957,1.0,0.0,0.0,1e-04,0.9347826242446899,1.0408587455749512,1.0408587455749512
958,1.0,0.0,0.0,1e-04,0.9347826242446899,1.0408587455749512,1.0408587455749512
959,1.0,0.0,0.0,1e-04,0.9347826242446899,1.0408587455749512,1.0408587455749512
960,1.0,0.0,0.0,1e-04,0.9347826242446899,1.0408587455749512,1.0408587455749512
961,1.0,0.0,0.0,1e-04,0.9347826242446899,1.0408587455749512,1.0408587455749512
962,1.0,0.0,0.0,1e-04,0.9347826242446899,1.0408587455749512,1.0408587455749512
963,1.0,0.0,0.0,1e-04,0.9347826242446899,1.0408587455749512,1.0408587455749512
964,1.0,0.0,0.0,1e-04,0.9347826242446899,1.0408587455749512,1.0408587455749512
965,1.0,0.0,0.0,1e-04,0.9347826242446899,1.0408587455749512,1.0408587455749512
966,1.0,0.0,0.0,1e-04,0.9347826242446899,1.0408587455749512,1.0408587455749512
967,1.0,0.0,0.0,1e-04,0.9347826242446899,1.0408587455749512,1.0408587455749512
968,1.0,0.0,0.0,1e-04,0.9347826242446899,1.0408587455749512,1.0408587455749512
969,1.0,0.0,0.0,1e-04,0.9347826242446899,1.0408587455749512,1.0408587455749512
970,1.0,0.0,0.0,1e-04,0.9347826242446899,1.0408587455749512,1.0408587455749512
971,1.0,0.0,0.0,1e-04,0.9347826242446899,1.0408587455749512,1.0408587455749512
972,1.0,0.0,0.0,1e-04,0.9347826242446899,1.0408587455749512,1.0408587455749512
973,1.0,0.0,0.0,1e-04,0.9347826242446899,1.0408587455749512,1.0408587455749512
974,1.0,0.0,0.0,1e-04,0.9347826242446899,1.0408587455749512,1.0408587455749512
975,1.0,0.0,0.0,1e-04,0.9347826242446899,1.0408587455749512,1.0408587455749512
976,1.0,0.0,0.0,1e-04,0.9347826242446899,1.0408587455749512,1.0408587455749512
977,1.0,0.0,0.0,1e-04,0.9347826242446899,1.0408587455749512,1.0408587455749512
978,1.0,0.0,0.0,1e-04,0.9347826242446899,1.0408587455749512,1.0408587455749512
979,1.0,0.0,0.0,1e-04,0.9347826242446899,1.0408587455749512,1.0408587455749512
980,1.0,0.0,0.0,1e-04,0.9347826242446899,1.0408587455749512,1.0408587455749512
981,1.0,0.0,0.0,1e-04,0.9347826242446899,1.0408587455749512,1.0408587455749512
982,1.0,0.0,0.0,1e-04,0.9347826242446899,1.0408587455749512,1.0408587455749512
983,1.0,0.0,0.0,1e-04,0.9347826242446899,1.0408587455749512,1.0408587455749512
984,1.0,0.0,0.0,1e-04,0.9347826242446899,1.0408587455749512,1.0408587455749512
985,1.0,0.0,0.0,1e-04,0.9347826242446899,1.0408587455749512,1.0408587455749512
986,1.0,0.0,0.0,1e-04,0.9347826242446899,1.0408587455749512,1.0408587455749512
987,1.0,0.0,0.0,1e-04,0.9347826242446899,1.0408587455749512,1.0408587455749512
988,1.0,0.0,0.0,1e-04,0.9347826242446899,1.0408587455749512,1.0408587455749512
989,1.0,0.0,0.0,1e-04,0.9347826242446899,1.0408587455749512,1.0408587455749512
990,1.0,0.0,0.0,1e-04,0.9347826242446899,1.0408587455749512,1.0408587455749512
991,1.0,0.0,0.0,1e-04,0.9347826242446899,1.0408587455749512,1.0408587455749512
992,1.0,0.0,0.0,1e-04,0.9347826242446899,1.0408587455749512,1.0408587455749512
993,1.0,0.0,0.0,1e-04,0.9347826242446899,1.0408587455749512,1.0408587455749512
994,1.0,0.0,0.0,1e-04,0.9347826242446899,1.0408587455749512,1.0408587455749512
995,1.0,0.0,0.0,1e-04,0.9347826242446899,1.0408587455749512,1.0408587455749512
996,1.0,0.0,0.0,1e-04,0.9347826242446899,1.0408587455749512,1.0408587455749512
997,1.0,0.0,0.0,1e-04,0.9347826242446899,1.0408587455749512,1.0408587455749512
998,1.0,0.0,0.0,1e-04,0.9347826242446899,1.0408587455749512,1.0408587455749512
999,1.0,0.0,0.0,1e-04,0.9347826242446899,1.0408587455749512,1.0408587455749512
0,0.30000001192092896,1.3856459856033325,1.3856459856033325,0.001,0.7021738886833191,0.9446349143981934,0.9446349143981934
1,0.875,0.4466632306575775,0.4466632306575775,0.001,0.852173924446106,0.4073333442211151,0.4073333442211151
2,0.9750000238418579,0.07105933874845505,0.07105933874845505,0.001,0.8644927740097046,0.345255047082901,0.345255047082901
3,1.0,0.01892315410077572,0.01892315410077572,0.001,0.8753623366355896,0.35351210832595825,0.35351210832595825
4,1.0,0.00950087420642376,0.00950087420642376,0.001,0.8913043737411499,0.3774537444114685,0.3774537444114685
5,1.0,0.0042878370732069016,0.0042878370732069016,0.001,0.8985507488250732,0.42381998896598816,0.42381998896598816
6,1.0,0.0011781597277149558,0.0011781597277149558,0.001,0.904347836971283,0.4843401610851288,0.4843401610851288
7,1.0,0.0003553187707439065,0.0003553187707439065,0.001,0.906521737575531,0.5497457981109619,0.5497457981109619
8,1.0,6.44912215648219e-05,6.44912215648219e-05,0.001,0.9057971239089966,0.6145781874656677,0.6145781874656677
9,1.0,5.337386483006412e-06,5.337386483006412e-06,0.001,0.9072463512420654,0.6770378351211548,0.6770378351211548
10,1.0,7.092920100149058e-07,7.092920100149058e-07,0.001,0.908695638179779,0.7365478277206421,0.7365478277206421
11,1.0,3.784876412282756e-07,3.784876412282756e-07,0.001,0.9108695387840271,0.7934607267379761,0.7934607267379761
12,1.0,1.877542956663092e-07,1.877542956663092e-07,0.001,0.9101449251174927,0.8472052216529846,0.8472052216529846
13,1.0,1.7881390590446244e-08,1.7881390590446244e-08,0.001,0.9108695387840271,0.897821307182312,0.897821307182312
14,1.0,0.0,0.0,0.001,0.9115942120552063,0.9453719258308411,0.9453719258308411
15,1.0,2.9802320611338473e-09,2.9802320611338473e-09,0.001,0.9115942120552063,0.9900384545326233,0.9900384545326233
16,1.0,0.0,0.0,0.001,0.9115942120552063,1.0318548679351807,1.0318548679351807
17,1.0,0.0,0.0,0.001,0.9115942120552063,1.0711318254470825,1.0711318254470825
18,1.0,0.0,0.0,0.001,0.9115942120552063,1.1076432466506958,1.1076432466506958
19,1.0,0.0,0.0,0.001,0.9115942120552063,1.141640305519104,1.141640305519104
20,1.0,0.0,0.0,0.001,0.9123188257217407,1.1732046604156494,1.1732046604156494
21,1.0,0.0,0.0,0.001,0.9130434989929199,1.2023730278015137,1.2023730278015137
22,1.0,0.0,0.0,0.001,0.9130434989929199,1.2294480800628662,1.2294480800628662
23,1.0,0.0,0.0,0.001,0.9130434989929199,1.2545130252838135,1.2545130252838135
24,1.0,0.0,0.0,0.001,0.9130434989929199,1.2776755094528198,1.2776755094528198
25,1.0,0.0,0.0,0.001,0.9130434989929199,1.2990751266479492,1.2990751266479492
26,1.0,0.0,0.0,0.001,0.915217399597168,1.3187683820724487,1.3187683820724487
27,1.0,0.0,0.0,0.001,0.9159420132637024,1.3369609117507935,1.3369609117507935
28,1.0,0.0,0.0,0.001,0.9166666865348816,1.3537013530731201,1.3537013530731201
29,1.0,0.0,0.0,0.001,0.9166666865348816,1.3690141439437866,1.3690141439437866
30,1.0,0.0,0.0,0.001,0.917391300201416,1.3831942081451416,1.3831942081451416
31,1.0,0.0,0.0,0.001,0.917391300201416,1.3961549997329712,1.3961549997329712
32,1.0,0.0,0.0,0.001,0.9181159138679504,1.4080063104629517,1.4080063104629517
33,1.0,0.0,0.0,0.001,0.9181159138679504,1.4188482761383057,1.4188482761383057
34,1.0,0.0,0.0,0.001,0.9181159138679504,1.4288111925125122,1.4288111925125122
35,1.0,0.0,0.0,0.001,0.9181159138679504,1.437896966934204,1.437896966934204
36,1.0,0.0,0.0,0.001,0.9181159138679504,1.446227788925171,1.446227788925171
37,1.0,0.0,0.0,0.001,0.9181159138679504,1.4537729024887085,1.4537729024887085
38,1.0,0.0,0.0,0.001,0.9181159138679504,1.4607375860214233,1.4607375860214233
39,1.0,0.0,0.0,0.001,0.9181159138679504,1.4670590162277222,1.4670590162277222
40,1.0,0.0,0.0,0.001,0.9181159138679504,1.4728087186813354,1.4728087186813354
41,1.0,0.0,0.0,0.001,0.9181159138679504,1.47813880443573,1.47813880443573
42,1.0,0.0,0.0,0.001,0.9181159138679504,1.4828808307647705,1.4828808307647705
43,1.0,0.0,0.0,0.001,0.9181159138679504,1.4872554540634155,1.4872554540634155
44,1.0,0.0,0.0,0.001,0.9181159138679504,1.4912617206573486,1.4912617206573486
45,1.0,0.0,0.0,0.001,0.9181159138679504,1.4948660135269165,1.4948660135269165
46,1.0,0.0,0.0,0.001,0.9181159138679504,1.4981763362884521,1.4981763362884521
47,1.0,0.0,0.0,0.001,0.9181159138679504,1.5011900663375854,1.5011900663375854
48,1.0,0.0,0.0,0.001,0.9181159138679504,1.503917932510376,1.503917932510376
49,1.0,0.0,0.0,0.001,0.9181159138679504,1.5063879489898682,1.5063879489898682
50,1.0,0.0,0.0,0.001,0.9181159138679504,1.5086356401443481,1.5086356401443481
51,1.0,0.0,0.0,0.001,0.9181159138679504,1.5107107162475586,1.5107107162475586
52,1.0,0.0,0.0,0.001,0.9181159138679504,1.5126229524612427,1.5126229524612427
53,1.0,0.0,0.0,0.0005,0.9181159138679504,1.5134204626083374,1.5134204626083374
54,1.0,0.0,0.0,0.0005,0.9181159138679504,1.5142031908035278,1.5142031908035278
55,1.0,0.0,0.0,0.0005,0.9181159138679504,1.5149346590042114,1.5149346590042114
56,1.0,0.0,0.0,0.0005,0.9181159138679504,1.515579342842102,1.515579342842102
57,1.0,0.0,0.0,0.0005,0.9181159138679504,1.5161670446395874,1.5161670446395874
58,1.0,0.0,0.0,0.0005,0.9181159138679504,1.516706943511963,1.516706943511963
59,1.0,0.0,0.0,0.0005,0.9181159138679504,1.5171911716461182,1.5171911716461182
60,1.0,0.0,0.0,0.0005,0.9181159138679504,1.517633318901062,1.517633318901062
61,1.0,0.0,0.0,0.0005,0.9181159138679504,1.5180087089538574,1.5180087089538574
62,1.0,0.0,0.0,0.0005,0.9181159138679504,1.5183470249176025,1.5183470249176025
63,1.0,0.0,0.0,0.0005,0.9181159138679504,1.518688440322876,1.518688440322876
64,1.0,0.0,0.0,0.0005,0.9181159138679504,1.5189824104309082,1.5189824104309082
65,1.0,0.0,0.0,0.0005,0.9181159138679504,1.519261121749878,1.519261121749878
66,1.0,0.0,0.0,0.0005,0.9181159138679504,1.5194978713989258,1.5194978713989258
67,1.0,0.0,0.0,0.0005,0.9181159138679504,1.5196967124938965,1.5196967124938965
68,1.0,0.0,0.0,0.0005,0.9181159138679504,1.5198897123336792,1.5198897123336792
69,1.0,0.0,0.0,0.0005,0.9181159138679504,1.5200783014297485,1.5200783014297485
70,1.0,0.0,0.0,0.0005,0.9181159138679504,1.5202465057373047,1.5202465057373047
71,1.0,0.0,0.0,0.0005,0.9181159138679504,1.5203965902328491,1.5203965902328491
72,1.0,0.0,0.0,0.0005,0.9181159138679504,1.5205334424972534,1.5205334424972534
73,1.0,0.0,0.0,0.0005,0.9181159138679504,1.5206477642059326,1.5206477642059326
74,1.0,0.0,0.0,0.0005,0.9181159138679504,1.5207511186599731,1.5207511186599731
75,1.0,0.0,0.0,0.0005,0.9181159138679504,1.520841121673584,1.520841121673584
76,1.0,0.0,0.0,0.0005,0.9181159138679504,1.5209532976150513,1.5209532976150513
77,1.0,0.0,0.0,0.0005,0.9181159138679504,1.5210243463516235,1.5210243463516235
78,1.0,0.0,0.0,0.0005,0.9181159138679504,1.5210981369018555,1.5210981369018555
79,1.0,0.0,0.0,0.0005,0.9181159138679504,1.5211573839187622,1.5211573839187622
80,1.0,0.0,0.0,0.0005,0.9181159138679504,1.5212292671203613,1.5212292671203613
81,1.0,0.0,0.0,0.0005,0.9181159138679504,1.5212844610214233,1.5212844610214233
82,1.0,0.0,0.0,0.0005,0.9181159138679504,1.5213338136672974,1.5213338136672974
83,1.0,0.0,0.0,0.0005,0.9181159138679504,1.5213758945465088,1.5213758945465088
84,1.0,0.0,0.0,0.0005,0.9181159138679504,1.5214240550994873,1.5214240550994873
85,1.0,0.0,0.0,0.0005,0.9181159138679504,1.5214654207229614,1.5214654207229614
86,1.0,0.0,0.0,0.0005,0.9181159138679504,1.5214897394180298,1.5214897394180298
87,1.0,0.0,0.0,0.0005,0.9181159138679504,1.5215165615081787,1.5215165615081787
88,1.0,0.0,0.0,0.0005,0.9181159138679504,1.5215480327606201,1.5215480327606201
89,1.0,0.0,0.0,0.0005,0.9181159138679504,1.5215672254562378,1.5215672254562378
90,1.0,0.0,0.0,0.0005,0.9181159138679504,1.5215954780578613,1.5215954780578613
91,1.0,0.0,0.0,0.0005,0.9181159138679504,1.52161705493927,1.52161705493927
92,1.0,0.0,0.0,0.0005,0.9181159138679504,1.521632432937622,1.521632432937622
93,1.0,0.0,0.0,0.0005,0.9181159138679504,1.5216505527496338,1.5216505527496338
94,1.0,0.0,0.0,0.0005,0.9181159138679504,1.5216670036315918,1.5216670036315918
95,1.0,0.0,0.0,0.0005,0.9181159138679504,1.52168607711792,1.52168607711792
96,1.0,0.0,0.0,0.0005,0.9181159138679504,1.5216981172561646,1.5216981172561646
97,1.0,0.0,0.0,0.0005,0.9181159138679504,1.5217136144638062,1.5217136144638062
98,1.0,0.0,0.0,0.0005,0.9181159138679504,1.5217297077178955,1.5217297077178955
99,1.0,0.0,0.0,0.0005,0.9181159138679504,1.5217419862747192,1.5217419862747192
100,1.0,0.0,0.0,0.0005,0.9181159138679504,1.5217543840408325,1.5217543840408325
101,1.0,0.0,0.0,0.0005,0.9181159138679504,1.521759271621704,1.521759271621704
102,1.0,0.0,0.0,0.0005,0.9181159138679504,1.5217676162719727,1.5217676162719727
103,1.0,0.0,0.0,0.00025,0.9181159138679504,1.5217684507369995,1.5217684507369995
104,1.0,0.0,0.0,0.00025,0.9181159138679504,1.5217686891555786,1.5217686891555786
105,1.0,0.0,0.0,0.00025,0.9181159138679504,1.5217722654342651,1.5217722654342651
106,1.0,0.0,0.0,0.00025,0.9181159138679504,1.5217756032943726,1.5217756032943726
107,1.0,0.0,0.0,0.00025,0.9181159138679504,1.5217781066894531,1.5217781066894531
108,1.0,0.0,0.0,0.00025,0.9181159138679504,1.5217804908752441,1.5217804908752441
109,1.0,0.0,0.0,0.00025,0.9181159138679504,1.5217814445495605,1.5217814445495605
110,1.0,0.0,0.0,0.00025,0.9181159138679504,1.5217801332473755,1.5217801332473755
111,1.0,0.0,0.0,0.00025,0.9181159138679504,1.5217840671539307,1.5217840671539307
112,1.0,0.0,0.0,0.00025,0.9181159138679504,1.5217841863632202,1.5217841863632202
113,1.0,0.0,0.0,0.00025,0.9181159138679504,1.521785855293274,1.521785855293274
114,1.0,0.0,0.0,0.00025,0.9181159138679504,1.521785855293274,1.521785855293274
115,1.0,0.0,0.0,0.00025,0.9181159138679504,1.5217862129211426,1.5217862129211426
116,1.0,0.0,0.0,0.00025,0.9181159138679504,1.5217866897583008,1.5217866897583008
117,1.0,0.0,0.0,0.00025,0.9181159138679504,1.5217872858047485,1.5217872858047485
118,1.0,0.0,0.0,0.00025,0.9181159138679504,1.5217891931533813,1.5217891931533813
119,1.0,0.0,0.0,0.00025,0.9181159138679504,1.5217894315719604,1.5217894315719604
120,1.0,0.0,0.0,0.00025,0.9181159138679504,1.5217903852462769,1.5217903852462769
121,1.0,0.0,0.0,0.00025,0.9181159138679504,1.521790623664856,1.521790623664856
122,1.0,0.0,0.0,0.00025,0.9181159138679504,1.521790623664856,1.521790623664856
123,1.0,0.0,0.0,0.00025,0.9181159138679504,1.521790623664856,1.521790623664856
124,1.0,0.0,0.0,0.00025,0.9181159138679504,1.521790623664856,1.521790623664856
125,1.0,0.0,0.0,0.00025,0.9181159138679504,1.5217913389205933,1.5217913389205933
126,1.0,0.0,0.0,0.00025,0.9181159138679504,1.5217907428741455,1.5217907428741455
127,1.0,0.0,0.0,0.00025,0.9181159138679504,1.5217907428741455,1.5217907428741455
128,1.0,0.0,0.0,0.00025,0.9181159138679504,1.5217909812927246,1.5217909812927246
129,1.0,0.0,0.0,0.00025,0.9181159138679504,1.5217907428741455,1.5217907428741455
130,1.0,0.0,0.0,0.00025,0.9181159138679504,1.5217911005020142,1.5217911005020142
131,1.0,0.0,0.0,0.00025,0.9181159138679504,1.5217911005020142,1.5217911005020142
132,1.0,0.0,0.0,0.00025,0.9181159138679504,1.5217914581298828,1.5217914581298828
133,1.0,0.0,0.0,0.00025,0.9181159138679504,1.521791696548462,1.521791696548462
134,1.0,0.0,0.0,0.00025,0.9181159138679504,1.5217918157577515,1.5217918157577515
135,1.0,0.0,0.0,0.00025,0.9181159138679504,1.5217921733856201,1.5217921733856201
136,1.0,0.0,0.0,0.00025,0.9181159138679504,1.5217921733856201,1.5217921733856201
137,1.0,0.0,0.0,0.00025,0.9181159138679504,1.5217921733856201,1.5217921733856201
138,1.0,0.0,0.0,0.00025,0.9181159138679504,1.5217921733856201,1.5217921733856201
139,1.0,0.0,0.0,0.00025,0.9181159138679504,1.5217921733856201,1.5217921733856201
140,1.0,0.0,0.0,0.00025,0.9181159138679504,1.5217921733856201,1.5217921733856201
141,1.0,0.0,0.0,0.00025,0.9181159138679504,1.5217921733856201,1.5217921733856201
142,1.0,0.0,0.0,0.00025,0.9181159138679504,1.5217921733856201,1.5217921733856201
143,1.0,0.0,0.0,0.00025,0.9181159138679504,1.5217921733856201,1.5217921733856201
144,1.0,0.0,0.0,0.00025,0.9181159138679504,1.5217921733856201,1.5217921733856201
145,1.0,0.0,0.0,0.00025,0.9181159138679504,1.5217921733856201,1.5217921733856201
146,1.0,0.0,0.0,0.00025,0.9181159138679504,1.5217920541763306,1.5217920541763306
147,1.0,0.0,0.0,0.00025,0.9181159138679504,1.5217920541763306,1.5217920541763306
148,1.0,0.0,0.0,0.00025,0.9181159138679504,1.5217920541763306,1.5217920541763306
149,1.0,0.0,0.0,0.00025,0.9181159138679504,1.5217920541763306,1.5217920541763306
150,1.0,0.0,0.0,0.00025,0.9181159138679504,1.5217920541763306,1.5217920541763306
151,1.0,0.0,0.0,0.00025,0.9181159138679504,1.5217920541763306,1.5217920541763306
152,1.0,0.0,0.0,0.00025,0.9181159138679504,1.5217920541763306,1.5217920541763306
153,1.0,0.0,0.0,0.000125,0.9181159138679504,1.5217920541763306,1.5217920541763306
154,1.0,0.0,0.0,0.000125,0.9181159138679504,1.5217920541763306,1.5217920541763306
155,1.0,0.0,0.0,0.000125,0.9181159138679504,1.5217920541763306,1.5217920541763306
156,1.0,0.0,0.0,0.000125,0.9181159138679504,1.5217921733856201,1.5217921733856201
157,1.0,0.0,0.0,0.000125,0.9181159138679504,1.5217921733856201,1.5217921733856201
158,1.0,0.0,0.0,0.000125,0.9181159138679504,1.5217921733856201,1.5217921733856201
159,1.0,0.0,0.0,0.000125,0.9181159138679504,1.5217921733856201,1.5217921733856201
160,1.0,0.0,0.0,0.000125,0.9181159138679504,1.5217921733856201,1.5217921733856201
161,1.0,0.0,0.0,0.000125,0.9181159138679504,1.5217921733856201,1.5217921733856201
162,1.0,0.0,0.0,0.000125,0.9181159138679504,1.5217921733856201,1.5217921733856201
163,1.0,0.0,0.0,0.000125,0.9181159138679504,1.5217921733856201,1.5217921733856201
164,1.0,0.0,0.0,0.000125,0.9181159138679504,1.5217921733856201,1.5217921733856201
165,1.0,0.0,0.0,0.000125,0.9181159138679504,1.5217921733856201,1.5217921733856201
166,1.0,0.0,0.0,0.000125,0.9181159138679504,1.5217921733856201,1.5217921733856201
167,1.0,0.0,0.0,0.000125,0.9181159138679504,1.5217921733856201,1.5217921733856201
168,1.0,0.0,0.0,0.000125,0.9181159138679504,1.5217921733856201,1.5217921733856201
169,1.0,0.0,0.0,0.000125,0.9181159138679504,1.5217921733856201,1.5217921733856201
170,1.0,0.0,0.0,0.000125,0.9181159138679504,1.5217921733856201,1.5217921733856201
171,1.0,0.0,0.0,0.000125,0.9181159138679504,1.5217921733856201,1.5217921733856201
172,1.0,0.0,0.0,0.000125,0.9181159138679504,1.5217921733856201,1.5217921733856201
173,1.0,0.0,0.0,0.000125,0.9181159138679504,1.5217921733856201,1.5217921733856201
174,1.0,0.0,0.0,0.000125,0.9181159138679504,1.5217921733856201,1.5217921733856201
175,1.0,0.0,0.0,0.000125,0.9181159138679504,1.5217921733856201,1.5217921733856201
176,1.0,0.0,0.0,0.000125,0.9181159138679504,1.5217921733856201,1.5217921733856201
177,1.0,0.0,0.0,0.000125,0.9181159138679504,1.5217921733856201,1.5217921733856201
178,1.0,0.0,0.0,0.000125,0.9181159138679504,1.5217921733856201,1.5217921733856201
179,1.0,0.0,0.0,0.000125,0.9181159138679504,1.5217921733856201,1.5217921733856201
180,1.0,0.0,0.0,0.000125,0.9181159138679504,1.5217921733856201,1.5217921733856201
181,1.0,0.0,0.0,0.000125,0.9181159138679504,1.5217921733856201,1.5217921733856201
182,1.0,0.0,0.0,0.000125,0.9181159138679504,1.5217921733856201,1.5217921733856201
183,1.0,0.0,0.0,0.000125,0.9181159138679504,1.5217921733856201,1.5217921733856201
184,1.0,0.0,0.0,0.000125,0.9181159138679504,1.5217921733856201,1.5217921733856201
185,1.0,0.0,0.0,0.000125,0.9181159138679504,1.5217921733856201,1.5217921733856201
186,1.0,0.0,0.0,0.000125,0.9181159138679504,1.5217921733856201,1.5217921733856201
187,1.0,0.0,0.0,0.000125,0.9181159138679504,1.5217921733856201,1.5217921733856201
188,1.0,0.0,0.0,0.000125,0.9181159138679504,1.5217921733856201,1.5217921733856201
189,1.0,0.0,0.0,0.000125,0.9181159138679504,1.5217921733856201,1.5217921733856201
190,1.0,0.0,0.0,0.000125,0.9181159138679504,1.5217921733856201,1.5217921733856201
191,1.0,0.0,0.0,0.000125,0.9181159138679504,1.5217921733856201,1.5217921733856201
192,1.0,0.0,0.0,0.000125,0.9181159138679504,1.5217921733856201,1.5217921733856201
193,1.0,0.0,0.0,0.000125,0.9181159138679504,1.5217921733856201,1.5217921733856201
194,1.0,0.0,0.0,0.000125,0.9181159138679504,1.5217921733856201,1.5217921733856201
195,1.0,0.0,0.0,0.000125,0.9181159138679504,1.5217921733856201,1.5217921733856201
196,1.0,0.0,0.0,0.000125,0.9181159138679504,1.5217921733856201,1.5217921733856201
197,1.0,0.0,0.0,0.000125,0.9181159138679504,1.5217921733856201,1.5217921733856201
198,1.0,0.0,0.0,0.000125,0.9181159138679504,1.5217921733856201,1.5217921733856201
199,1.0,0.0,0.0,0.000125,0.9181159138679504,1.5217921733856201,1.5217921733856201
200,1.0,0.0,0.0,0.000125,0.9181159138679504,1.5217921733856201,1.5217921733856201
201,1.0,0.0,0.0,0.000125,0.9181159138679504,1.5217921733856201,1.5217921733856201
202,1.0,0.0,0.0,0.000125,0.9181159138679504,1.5217921733856201,1.5217921733856201
203,1.0,0.0,0.0,1e-04,0.9181159138679504,1.5217921733856201,1.5217921733856201
204,1.0,0.0,0.0,1e-04,0.9181159138679504,1.5217921733856201,1.5217921733856201
205,1.0,0.0,0.0,1e-04,0.9181159138679504,1.5217921733856201,1.5217921733856201
206,1.0,0.0,0.0,1e-04,0.9181159138679504,1.5217921733856201,1.5217921733856201
207,1.0,0.0,0.0,1e-04,0.9181159138679504,1.5217921733856201,1.5217921733856201
208,1.0,0.0,0.0,1e-04,0.9181159138679504,1.5217921733856201,1.5217921733856201
209,1.0,0.0,0.0,1e-04,0.9181159138679504,1.5217921733856201,1.5217921733856201
210,1.0,0.0,0.0,1e-04,0.9181159138679504,1.5217921733856201,1.5217921733856201
211,1.0,0.0,0.0,1e-04,0.9181159138679504,1.5217921733856201,1.5217921733856201
212,1.0,0.0,0.0,1e-04,0.9181159138679504,1.5217921733856201,1.5217921733856201
213,1.0,0.0,0.0,1e-04,0.9181159138679504,1.5217921733856201,1.5217921733856201
214,1.0,0.0,0.0,1e-04,0.9181159138679504,1.5217921733856201,1.5217921733856201
215,1.0,0.0,0.0,1e-04,0.9181159138679504,1.5217921733856201,1.5217921733856201
216,1.0,0.0,0.0,1e-04,0.9181159138679504,1.5217921733856201,1.5217921733856201
217,1.0,0.0,0.0,1e-04,0.9181159138679504,1.5217921733856201,1.5217921733856201
218,1.0,0.0,0.0,1e-04,0.9181159138679504,1.5217921733856201,1.5217921733856201
219,1.0,0.0,0.0,1e-04,0.9181159138679504,1.5217921733856201,1.5217921733856201
220,1.0,0.0,0.0,1e-04,0.9181159138679504,1.5217921733856201,1.5217921733856201
221,1.0,0.0,0.0,1e-04,0.9181159138679504,1.5217921733856201,1.5217921733856201
222,1.0,0.0,0.0,1e-04,0.9181159138679504,1.5217921733856201,1.5217921733856201
223,1.0,0.0,0.0,1e-04,0.9181159138679504,1.5217921733856201,1.5217921733856201
224,1.0,0.0,0.0,1e-04,0.9181159138679504,1.5217921733856201,1.5217921733856201
225,1.0,0.0,0.0,1e-04,0.9181159138679504,1.5217921733856201,1.5217921733856201
226,1.0,0.0,0.0,1e-04,0.9181159138679504,1.5217921733856201,1.5217921733856201
227,1.0,0.0,0.0,1e-04,0.9181159138679504,1.5217921733856201,1.5217921733856201
228,1.0,0.0,0.0,1e-04,0.9181159138679504,1.5217921733856201,1.5217921733856201
229,1.0,0.0,0.0,1e-04,0.9181159138679504,1.5217921733856201,1.5217921733856201
230,1.0,0.0,0.0,1e-04,0.9181159138679504,1.5217921733856201,1.5217921733856201
231,1.0,0.0,0.0,1e-04,0.9181159138679504,1.5217921733856201,1.5217921733856201
232,1.0,0.0,0.0,1e-04,0.9181159138679504,1.5217921733856201,1.5217921733856201
233,1.0,0.0,0.0,1e-04,0.9181159138679504,1.5217921733856201,1.5217921733856201
234,1.0,0.0,0.0,1e-04,0.9181159138679504,1.5217921733856201,1.5217921733856201
235,1.0,0.0,0.0,1e-04,0.9181159138679504,1.5217921733856201,1.5217921733856201
236,1.0,0.0,0.0,1e-04,0.9181159138679504,1.5217921733856201,1.5217921733856201
237,1.0,0.0,0.0,1e-04,0.9181159138679504,1.5217921733856201,1.5217921733856201
238,1.0,0.0,0.0,1e-04,0.9181159138679504,1.5217921733856201,1.5217921733856201
239,1.0,0.0,0.0,1e-04,0.9181159138679504,1.5217921733856201,1.5217921733856201
240,1.0,0.0,0.0,1e-04,0.9181159138679504,1.5217921733856201,1.5217921733856201
241,1.0,0.0,0.0,1e-04,0.9181159138679504,1.5217921733856201,1.5217921733856201
242,1.0,0.0,0.0,1e-04,0.9181159138679504,1.5217921733856201,1.5217921733856201
243,1.0,0.0,0.0,1e-04,0.9181159138679504,1.5217921733856201,1.5217921733856201
244,1.0,0.0,0.0,1e-04,0.9181159138679504,1.5217921733856201,1.5217921733856201
245,1.0,0.0,0.0,1e-04,0.9181159138679504,1.5217921733856201,1.5217921733856201
246,1.0,0.0,0.0,1e-04,0.9181159138679504,1.5217921733856201,1.5217921733856201
247,1.0,0.0,0.0,1e-04,0.9181159138679504,1.5217921733856201,1.5217921733856201
248,1.0,0.0,0.0,1e-04,0.9181159138679504,1.5217921733856201,1.5217921733856201
249,1.0,0.0,0.0,1e-04,0.9181159138679504,1.5217921733856201,1.5217921733856201
250,1.0,0.0,0.0,1e-04,0.9181159138679504,1.5217921733856201,1.5217921733856201
251,1.0,0.0,0.0,1e-04,0.9181159138679504,1.5217921733856201,1.5217921733856201
252,1.0,0.0,0.0,1e-04,0.9181159138679504,1.5217921733856201,1.5217921733856201
253,1.0,0.0,0.0,1e-04,0.9181159138679504,1.5217921733856201,1.5217921733856201
254,1.0,0.0,0.0,1e-04,0.9181159138679504,1.5217921733856201,1.5217921733856201
255,1.0,0.0,0.0,1e-04,0.9181159138679504,1.5217921733856201,1.5217921733856201
256,1.0,0.0,0.0,1e-04,0.9181159138679504,1.5217921733856201,1.5217921733856201
257,1.0,0.0,0.0,1e-04,0.9181159138679504,1.5217921733856201,1.5217921733856201
258,1.0,0.0,0.0,1e-04,0.9181159138679504,1.5217921733856201,1.5217921733856201
259,1.0,0.0,0.0,1e-04,0.9181159138679504,1.5217921733856201,1.5217921733856201
260,1.0,0.0,0.0,1e-04,0.9181159138679504,1.5217921733856201,1.5217921733856201
261,1.0,0.0,0.0,1e-04,0.9181159138679504,1.5217921733856201,1.5217921733856201
262,1.0,0.0,0.0,1e-04,0.9181159138679504,1.5217921733856201,1.5217921733856201
263,1.0,0.0,0.0,1e-04,0.9181159138679504,1.5217921733856201,1.5217921733856201
264,1.0,0.0,0.0,1e-04,0.9181159138679504,1.5217921733856201,1.5217921733856201
265,1.0,0.0,0.0,1e-04,0.9181159138679504,1.5217921733856201,1.5217921733856201
266,1.0,0.0,0.0,1e-04,0.9181159138679504,1.5217921733856201,1.5217921733856201
267,1.0,0.0,0.0,1e-04,0.9181159138679504,1.5217921733856201,1.5217921733856201
268,1.0,0.0,0.0,1e-04,0.9181159138679504,1.5217921733856201,1.5217921733856201
269,1.0,0.0,0.0,1e-04,0.9181159138679504,1.5217921733856201,1.5217921733856201
270,1.0,0.0,0.0,1e-04,0.9181159138679504,1.5217921733856201,1.5217921733856201
271,1.0,0.0,0.0,1e-04,0.9181159138679504,1.5217921733856201,1.5217921733856201
272,1.0,0.0,0.0,1e-04,0.9181159138679504,1.5217921733856201,1.5217921733856201
273,1.0,0.0,0.0,1e-04,0.9181159138679504,1.5217921733856201,1.5217921733856201
274,1.0,0.0,0.0,1e-04,0.9181159138679504,1.5217921733856201,1.5217921733856201
275,1.0,0.0,0.0,1e-04,0.9181159138679504,1.5217921733856201,1.5217921733856201
276,1.0,0.0,0.0,1e-04,0.9181159138679504,1.5217921733856201,1.5217921733856201
277,1.0,0.0,0.0,1e-04,0.9181159138679504,1.5217921733856201,1.5217921733856201
278,1.0,0.0,0.0,1e-04,0.9181159138679504,1.5217921733856201,1.5217921733856201
279,1.0,0.0,0.0,1e-04,0.9181159138679504,1.5217921733856201,1.5217921733856201
280,1.0,0.0,0.0,1e-04,0.9181159138679504,1.5217921733856201,1.5217921733856201
281,1.0,0.0,0.0,1e-04,0.9181159138679504,1.5217921733856201,1.5217921733856201
282,1.0,0.0,0.0,1e-04,0.9181159138679504,1.5217921733856201,1.5217921733856201
283,1.0,0.0,0.0,1e-04,0.9181159138679504,1.5217921733856201,1.5217921733856201
284,1.0,0.0,0.0,1e-04,0.9181159138679504,1.5217921733856201,1.5217921733856201
285,1.0,0.0,0.0,1e-04,0.9181159138679504,1.5217921733856201,1.5217921733856201
286,1.0,0.0,0.0,1e-04,0.9181159138679504,1.5217921733856201,1.5217921733856201
287,1.0,0.0,0.0,1e-04,0.9181159138679504,1.5217921733856201,1.5217921733856201
288,1.0,0.0,0.0,1e-04,0.9181159138679504,1.5217921733856201,1.5217921733856201
289,1.0,0.0,0.0,1e-04,0.9181159138679504,1.5217921733856201,1.5217921733856201
290,1.0,0.0,0.0,1e-04,0.9181159138679504,1.5217921733856201,1.5217921733856201
291,1.0,0.0,0.0,1e-04,0.9181159138679504,1.5217921733856201,1.5217921733856201
292,1.0,0.0,0.0,1e-04,0.9181159138679504,1.5217921733856201,1.5217921733856201
293,1.0,0.0,0.0,1e-04,0.9181159138679504,1.5217921733856201,1.5217921733856201
294,1.0,0.0,0.0,1e-04,0.9181159138679504,1.5217921733856201,1.5217921733856201
295,1.0,0.0,0.0,1e-04,0.9181159138679504,1.5217921733856201,1.5217921733856201
296,1.0,0.0,0.0,1e-04,0.9181159138679504,1.5217921733856201,1.5217921733856201
297,1.0,0.0,0.0,1e-04,0.9181159138679504,1.5217921733856201,1.5217921733856201
298,1.0,0.0,0.0,1e-04,0.9181159138679504,1.5217921733856201,1.5217921733856201
299,1.0,0.0,0.0,1e-04,0.9181159138679504,1.5217921733856201,1.5217921733856201
300,1.0,0.0,0.0,1e-04,0.9181159138679504,1.5217921733856201,1.5217921733856201
301,1.0,0.0,0.0,1e-04,0.9181159138679504,1.5217921733856201,1.5217921733856201
302,1.0,0.0,0.0,1e-04,0.9181159138679504,1.5217921733856201,1.5217921733856201
303,1.0,0.0,0.0,1e-04,0.9181159138679504,1.5217921733856201,1.5217921733856201
304,1.0,0.0,0.0,1e-04,0.9181159138679504,1.5217921733856201,1.5217921733856201
305,1.0,0.0,0.0,1e-04,0.9181159138679504,1.5217921733856201,1.5217921733856201
306,1.0,0.0,0.0,1e-04,0.9181159138679504,1.5217921733856201,1.5217921733856201
307,1.0,0.0,0.0,1e-04,0.9181159138679504,1.5217921733856201,1.5217921733856201
308,1.0,0.0,0.0,1e-04,0.9181159138679504,1.5217921733856201,1.5217921733856201
309,1.0,0.0,0.0,1e-04,0.9181159138679504,1.5217921733856201,1.5217921733856201
310,1.0,0.0,0.0,1e-04,0.9181159138679504,1.5217921733856201,1.5217921733856201
311,1.0,0.0,0.0,1e-04,0.9181159138679504,1.5217921733856201,1.5217921733856201
312,1.0,0.0,0.0,1e-04,0.9181159138679504,1.5217921733856201,1.5217921733856201
313,1.0,0.0,0.0,1e-04,0.9181159138679504,1.5217921733856201,1.5217921733856201
314,1.0,0.0,0.0,1e-04,0.9181159138679504,1.5217921733856201,1.5217921733856201
315,1.0,0.0,0.0,1e-04,0.9181159138679504,1.5217921733856201,1.5217921733856201
316,1.0,0.0,0.0,1e-04,0.9181159138679504,1.5217921733856201,1.5217921733856201
317,1.0,0.0,0.0,1e-04,0.9181159138679504,1.5217921733856201,1.5217921733856201
318,1.0,0.0,0.0,1e-04,0.9181159138679504,1.5217921733856201,1.5217921733856201
319,1.0,0.0,0.0,1e-04,0.9181159138679504,1.5217921733856201,1.5217921733856201
320,1.0,0.0,0.0,1e-04,0.9181159138679504,1.5217921733856201,1.5217921733856201
321,1.0,0.0,0.0,1e-04,0.9181159138679504,1.5217921733856201,1.5217921733856201
322,1.0,0.0,0.0,1e-04,0.9181159138679504,1.5217921733856201,1.5217921733856201
323,1.0,0.0,0.0,1e-04,0.9181159138679504,1.5217921733856201,1.5217921733856201
324,1.0,0.0,0.0,1e-04,0.9181159138679504,1.5217921733856201,1.5217921733856201
325,1.0,0.0,0.0,1e-04,0.9181159138679504,1.5217921733856201,1.5217921733856201
326,1.0,0.0,0.0,1e-04,0.9181159138679504,1.5217921733856201,1.5217921733856201
327,1.0,0.0,0.0,1e-04,0.9181159138679504,1.5217921733856201,1.5217921733856201
328,1.0,0.0,0.0,1e-04,0.9181159138679504,1.5217921733856201,1.5217921733856201
329,1.0,0.0,0.0,1e-04,0.9181159138679504,1.5217921733856201,1.5217921733856201
330,1.0,0.0,0.0,1e-04,0.9181159138679504,1.5217921733856201,1.5217921733856201
331,1.0,0.0,0.0,1e-04,0.9181159138679504,1.5217921733856201,1.5217921733856201
332,1.0,0.0,0.0,1e-04,0.9181159138679504,1.5217921733856201,1.5217921733856201
333,1.0,0.0,0.0,1e-04,0.9181159138679504,1.5217921733856201,1.5217921733856201
334,1.0,0.0,0.0,1e-04,0.9181159138679504,1.5217921733856201,1.5217921733856201
335,1.0,0.0,0.0,1e-04,0.9181159138679504,1.5217921733856201,1.5217921733856201
336,1.0,0.0,0.0,1e-04,0.9181159138679504,1.5217921733856201,1.5217921733856201
337,1.0,0.0,0.0,1e-04,0.9181159138679504,1.5217921733856201,1.5217921733856201
338,1.0,0.0,0.0,1e-04,0.9181159138679504,1.5217921733856201,1.5217921733856201
339,1.0,0.0,0.0,1e-04,0.9181159138679504,1.5217921733856201,1.5217921733856201
340,1.0,0.0,0.0,1e-04,0.9181159138679504,1.5217921733856201,1.5217921733856201
341,1.0,0.0,0.0,1e-04,0.9181159138679504,1.5217921733856201,1.5217921733856201
342,1.0,0.0,0.0,1e-04,0.9181159138679504,1.5217921733856201,1.5217921733856201
343,1.0,0.0,0.0,1e-04,0.9181159138679504,1.5217921733856201,1.5217921733856201
344,1.0,0.0,0.0,1e-04,0.9181159138679504,1.5217921733856201,1.5217921733856201
345,1.0,0.0,0.0,1e-04,0.9181159138679504,1.5217921733856201,1.5217921733856201
346,1.0,0.0,0.0,1e-04,0.9181159138679504,1.5217921733856201,1.5217921733856201
347,1.0,0.0,0.0,1e-04,0.9181159138679504,1.5217921733856201,1.5217921733856201
348,1.0,0.0,0.0,1e-04,0.9181159138679504,1.5217921733856201,1.5217921733856201
349,1.0,0.0,0.0,1e-04,0.9181159138679504,1.5217921733856201,1.5217921733856201
350,1.0,0.0,0.0,1e-04,0.9181159138679504,1.5217921733856201,1.5217921733856201
351,1.0,0.0,0.0,1e-04,0.9181159138679504,1.5217921733856201,1.5217921733856201
352,1.0,0.0,0.0,1e-04,0.9181159138679504,1.5217921733856201,1.5217921733856201
353,1.0,0.0,0.0,1e-04,0.9181159138679504,1.5217921733856201,1.5217921733856201
354,1.0,0.0,0.0,1e-04,0.9181159138679504,1.5217921733856201,1.5217921733856201
355,1.0,0.0,0.0,1e-04,0.9181159138679504,1.5217921733856201,1.5217921733856201
356,1.0,0.0,0.0,1e-04,0.9181159138679504,1.5217921733856201,1.5217921733856201
357,1.0,0.0,0.0,1e-04,0.9181159138679504,1.5217921733856201,1.5217921733856201
358,1.0,0.0,0.0,1e-04,0.9181159138679504,1.5217921733856201,1.5217921733856201
359,1.0,0.0,0.0,1e-04,0.9181159138679504,1.5217921733856201,1.5217921733856201
360,1.0,0.0,0.0,1e-04,0.9181159138679504,1.5217921733856201,1.5217921733856201
361,1.0,0.0,0.0,1e-04,0.9181159138679504,1.5217921733856201,1.5217921733856201
362,1.0,0.0,0.0,1e-04,0.9181159138679504,1.5217921733856201,1.5217921733856201
363,1.0,0.0,0.0,1e-04,0.9181159138679504,1.5217921733856201,1.5217921733856201
364,1.0,0.0,0.0,1e-04,0.9181159138679504,1.5217921733856201,1.5217921733856201
365,1.0,0.0,0.0,1e-04,0.9181159138679504,1.5217921733856201,1.5217921733856201
366,1.0,0.0,0.0,1e-04,0.9181159138679504,1.5217921733856201,1.5217921733856201
367,1.0,0.0,0.0,1e-04,0.9181159138679504,1.5217921733856201,1.5217921733856201
368,1.0,0.0,0.0,1e-04,0.9181159138679504,1.5217921733856201,1.5217921733856201
369,1.0,0.0,0.0,1e-04,0.9181159138679504,1.5217921733856201,1.5217921733856201
370,1.0,0.0,0.0,1e-04,0.9181159138679504,1.5217921733856201,1.5217921733856201
371,1.0,0.0,0.0,1e-04,0.9181159138679504,1.5217921733856201,1.5217921733856201
372,1.0,0.0,0.0,1e-04,0.9181159138679504,1.5217921733856201,1.5217921733856201
373,1.0,0.0,0.0,1e-04,0.9181159138679504,1.5217921733856201,1.5217921733856201
374,1.0,0.0,0.0,1e-04,0.9181159138679504,1.5217921733856201,1.5217921733856201
375,1.0,0.0,0.0,1e-04,0.9181159138679504,1.5217921733856201,1.5217921733856201
376,1.0,0.0,0.0,1e-04,0.9181159138679504,1.5217921733856201,1.5217921733856201
377,1.0,0.0,0.0,1e-04,0.9181159138679504,1.5217921733856201,1.5217921733856201
378,1.0,0.0,0.0,1e-04,0.9181159138679504,1.5217921733856201,1.5217921733856201
379,1.0,0.0,0.0,1e-04,0.9181159138679504,1.5217921733856201,1.5217921733856201
380,1.0,0.0,0.0,1e-04,0.9181159138679504,1.5217921733856201,1.5217921733856201
381,1.0,0.0,0.0,1e-04,0.9181159138679504,1.5217921733856201,1.5217921733856201
382,1.0,0.0,0.0,1e-04,0.9181159138679504,1.5217921733856201,1.5217921733856201
383,1.0,0.0,0.0,1e-04,0.9181159138679504,1.5217921733856201,1.5217921733856201
384,1.0,0.0,0.0,1e-04,0.9181159138679504,1.5217921733856201,1.5217921733856201
385,1.0,0.0,0.0,1e-04,0.9181159138679504,1.5217921733856201,1.5217921733856201
386,1.0,0.0,0.0,1e-04,0.9181159138679504,1.5217921733856201,1.5217921733856201
387,1.0,0.0,0.0,1e-04,0.9181159138679504,1.5217921733856201,1.5217921733856201
388,1.0,0.0,0.0,1e-04,0.9181159138679504,1.5217921733856201,1.5217921733856201
389,1.0,0.0,0.0,1e-04,0.9181159138679504,1.5217921733856201,1.5217921733856201
390,1.0,0.0,0.0,1e-04,0.9181159138679504,1.5217921733856201,1.5217921733856201
391,1.0,0.0,0.0,1e-04,0.9181159138679504,1.5217921733856201,1.5217921733856201
392,1.0,0.0,0.0,1e-04,0.9181159138679504,1.5217921733856201,1.5217921733856201
393,1.0,0.0,0.0,1e-04,0.9181159138679504,1.5217921733856201,1.5217921733856201
394,1.0,0.0,0.0,1e-04,0.9181159138679504,1.5217921733856201,1.5217921733856201
395,1.0,0.0,0.0,1e-04,0.9181159138679504,1.5217921733856201,1.5217921733856201
396,1.0,0.0,0.0,1e-04,0.9181159138679504,1.5217921733856201,1.5217921733856201
397,1.0,0.0,0.0,1e-04,0.9181159138679504,1.5217921733856201,1.5217921733856201
398,1.0,0.0,0.0,1e-04,0.9181159138679504,1.5217921733856201,1.5217921733856201
399,1.0,0.0,0.0,1e-04,0.9181159138679504,1.5217921733856201,1.5217921733856201
400,1.0,0.0,0.0,1e-04,0.9181159138679504,1.5217921733856201,1.5217921733856201
401,1.0,0.0,0.0,1e-04,0.9181159138679504,1.5217921733856201,1.5217921733856201
402,1.0,0.0,0.0,1e-04,0.9181159138679504,1.5217921733856201,1.5217921733856201
403,1.0,0.0,0.0,1e-04,0.9181159138679504,1.5217921733856201,1.5217921733856201
404,1.0,0.0,0.0,1e-04,0.9181159138679504,1.5217921733856201,1.5217921733856201
405,1.0,0.0,0.0,1e-04,0.9181159138679504,1.5217921733856201,1.5217921733856201
406,1.0,0.0,0.0,1e-04,0.9181159138679504,1.5217921733856201,1.5217921733856201
407,1.0,0.0,0.0,1e-04,0.9181159138679504,1.5217921733856201,1.5217921733856201
408,1.0,0.0,0.0,1e-04,0.9181159138679504,1.5217921733856201,1.5217921733856201
409,1.0,0.0,0.0,1e-04,0.9181159138679504,1.5217921733856201,1.5217921733856201
410,1.0,0.0,0.0,1e-04,0.9181159138679504,1.5217921733856201,1.5217921733856201
411,1.0,0.0,0.0,1e-04,0.9181159138679504,1.5217921733856201,1.5217921733856201
412,1.0,0.0,0.0,1e-04,0.9181159138679504,1.5217921733856201,1.5217921733856201
413,1.0,0.0,0.0,1e-04,0.9181159138679504,1.5217921733856201,1.5217921733856201
414,1.0,0.0,0.0,1e-04,0.9181159138679504,1.5217921733856201,1.5217921733856201
415,1.0,0.0,0.0,1e-04,0.9181159138679504,1.5217921733856201,1.5217921733856201
416,1.0,0.0,0.0,1e-04,0.9181159138679504,1.5217921733856201,1.5217921733856201
417,1.0,0.0,0.0,1e-04,0.9181159138679504,1.5217921733856201,1.5217921733856201
418,1.0,0.0,0.0,1e-04,0.9181159138679504,1.5217921733856201,1.5217921733856201
419,1.0,0.0,0.0,1e-04,0.9181159138679504,1.5217921733856201,1.5217921733856201
420,1.0,0.0,0.0,1e-04,0.9181159138679504,1.5217921733856201,1.5217921733856201
421,1.0,0.0,0.0,1e-04,0.9181159138679504,1.5217921733856201,1.5217921733856201
422,1.0,0.0,0.0,1e-04,0.9181159138679504,1.5217921733856201,1.5217921733856201
423,1.0,0.0,0.0,1e-04,0.9181159138679504,1.5217921733856201,1.5217921733856201
424,1.0,0.0,0.0,1e-04,0.9181159138679504,1.5217921733856201,1.5217921733856201
425,1.0,0.0,0.0,1e-04,0.9181159138679504,1.5217921733856201,1.5217921733856201
426,1.0,0.0,0.0,1e-04,0.9181159138679504,1.5217921733856201,1.5217921733856201
427,1.0,0.0,0.0,1e-04,0.9181159138679504,1.5217921733856201,1.5217921733856201
428,1.0,0.0,0.0,1e-04,0.9181159138679504,1.5217921733856201,1.5217921733856201
429,1.0,0.0,0.0,1e-04,0.9181159138679504,1.5217921733856201,1.5217921733856201
430,1.0,0.0,0.0,1e-04,0.9181159138679504,1.5217921733856201,1.5217921733856201
431,1.0,0.0,0.0,1e-04,0.9181159138679504,1.5217921733856201,1.5217921733856201
432,1.0,0.0,0.0,1e-04,0.9181159138679504,1.5217921733856201,1.5217921733856201
433,1.0,0.0,0.0,1e-04,0.9181159138679504,1.5217921733856201,1.5217921733856201
434,1.0,0.0,0.0,1e-04,0.9181159138679504,1.5217921733856201,1.5217921733856201
435,1.0,0.0,0.0,1e-04,0.9181159138679504,1.5217921733856201,1.5217921733856201
436,1.0,0.0,0.0,1e-04,0.9181159138679504,1.5217921733856201,1.5217921733856201
437,1.0,0.0,0.0,1e-04,0.9181159138679504,1.5217921733856201,1.5217921733856201
438,1.0,0.0,0.0,1e-04,0.9181159138679504,1.5217921733856201,1.5217921733856201
439,1.0,0.0,0.0,1e-04,0.9181159138679504,1.5217921733856201,1.5217921733856201
440,1.0,0.0,0.0,1e-04,0.9181159138679504,1.5217921733856201,1.5217921733856201
441,1.0,0.0,0.0,1e-04,0.9181159138679504,1.5217921733856201,1.5217921733856201
442,1.0,0.0,0.0,1e-04,0.9181159138679504,1.5217921733856201,1.5217921733856201
443,1.0,0.0,0.0,1e-04,0.9181159138679504,1.5217921733856201,1.5217921733856201
444,1.0,0.0,0.0,1e-04,0.9181159138679504,1.5217921733856201,1.5217921733856201
445,1.0,0.0,0.0,1e-04,0.9181159138679504,1.5217921733856201,1.5217921733856201
446,1.0,0.0,0.0,1e-04,0.9181159138679504,1.5217921733856201,1.5217921733856201
447,1.0,0.0,0.0,1e-04,0.9181159138679504,1.5217921733856201,1.5217921733856201
448,1.0,0.0,0.0,1e-04,0.9181159138679504,1.5217921733856201,1.5217921733856201
449,1.0,0.0,0.0,1e-04,0.9181159138679504,1.5217921733856201,1.5217921733856201
450,1.0,0.0,0.0,1e-04,0.9181159138679504,1.5217921733856201,1.5217921733856201
451,1.0,0.0,0.0,1e-04,0.9181159138679504,1.5217921733856201,1.5217921733856201
452,1.0,0.0,0.0,1e-04,0.9181159138679504,1.5217921733856201,1.5217921733856201
453,1.0,0.0,0.0,1e-04,0.9181159138679504,1.5217921733856201,1.5217921733856201
454,1.0,0.0,0.0,1e-04,0.9181159138679504,1.5217921733856201,1.5217921733856201
455,1.0,0.0,0.0,1e-04,0.9181159138679504,1.5217921733856201,1.5217921733856201
456,1.0,0.0,0.0,1e-04,0.9181159138679504,1.5217921733856201,1.5217921733856201
457,1.0,0.0,0.0,1e-04,0.9181159138679504,1.5217921733856201,1.5217921733856201
458,1.0,0.0,0.0,1e-04,0.9181159138679504,1.5217921733856201,1.5217921733856201
459,1.0,0.0,0.0,1e-04,0.9181159138679504,1.5217921733856201,1.5217921733856201
460,1.0,0.0,0.0,1e-04,0.9181159138679504,1.5217921733856201,1.5217921733856201
461,1.0,0.0,0.0,1e-04,0.9181159138679504,1.5217921733856201,1.5217921733856201
462,1.0,0.0,0.0,1e-04,0.9181159138679504,1.5217921733856201,1.5217921733856201
463,1.0,0.0,0.0,1e-04,0.9181159138679504,1.5217921733856201,1.5217921733856201
464,1.0,0.0,0.0,1e-04,0.9181159138679504,1.5217921733856201,1.5217921733856201
465,1.0,0.0,0.0,1e-04,0.9181159138679504,1.5217921733856201,1.5217921733856201
466,1.0,0.0,0.0,1e-04,0.9181159138679504,1.5217921733856201,1.5217921733856201
467,1.0,0.0,0.0,1e-04,0.9181159138679504,1.5217921733856201,1.5217921733856201
468,1.0,0.0,0.0,1e-04,0.9181159138679504,1.5217921733856201,1.5217921733856201
469,1.0,0.0,0.0,1e-04,0.9181159138679504,1.5217921733856201,1.5217921733856201
470,1.0,0.0,0.0,1e-04,0.9181159138679504,1.5217921733856201,1.5217921733856201
471,1.0,0.0,0.0,1e-04,0.9181159138679504,1.5217921733856201,1.5217921733856201
472,1.0,0.0,0.0,1e-04,0.9181159138679504,1.5217921733856201,1.5217921733856201
473,1.0,0.0,0.0,1e-04,0.9181159138679504,1.5217921733856201,1.5217921733856201
474,1.0,0.0,0.0,1e-04,0.9181159138679504,1.5217921733856201,1.5217921733856201
475,1.0,0.0,0.0,1e-04,0.9181159138679504,1.5217921733856201,1.5217921733856201
476,1.0,0.0,0.0,1e-04,0.9181159138679504,1.5217921733856201,1.5217921733856201
477,1.0,0.0,0.0,1e-04,0.9181159138679504,1.5217921733856201,1.5217921733856201
478,1.0,0.0,0.0,1e-04,0.9181159138679504,1.5217921733856201,1.5217921733856201
479,1.0,0.0,0.0,1e-04,0.9181159138679504,1.5217921733856201,1.5217921733856201
480,1.0,0.0,0.0,1e-04,0.9181159138679504,1.5217921733856201,1.5217921733856201
481,1.0,0.0,0.0,1e-04,0.9181159138679504,1.5217921733856201,1.5217921733856201
482,1.0,0.0,0.0,1e-04,0.9181159138679504,1.5217921733856201,1.5217921733856201
483,1.0,0.0,0.0,1e-04,0.9181159138679504,1.5217921733856201,1.5217921733856201
484,1.0,0.0,0.0,1e-04,0.9181159138679504,1.5217921733856201,1.5217921733856201
485,1.0,0.0,0.0,1e-04,0.9181159138679504,1.5217921733856201,1.5217921733856201
486,1.0,0.0,0.0,1e-04,0.9181159138679504,1.5217921733856201,1.5217921733856201
487,1.0,0.0,0.0,1e-04,0.9181159138679504,1.5217921733856201,1.5217921733856201
488,1.0,0.0,0.0,1e-04,0.9181159138679504,1.5217921733856201,1.5217921733856201
489,1.0,0.0,0.0,1e-04,0.9181159138679504,1.5217921733856201,1.5217921733856201
490,1.0,0.0,0.0,1e-04,0.9181159138679504,1.5217921733856201,1.5217921733856201
491,1.0,0.0,0.0,1e-04,0.9181159138679504,1.5217921733856201,1.5217921733856201
492,1.0,0.0,0.0,1e-04,0.9181159138679504,1.5217921733856201,1.5217921733856201
493,1.0,0.0,0.0,1e-04,0.9181159138679504,1.5217921733856201,1.5217921733856201
494,1.0,0.0,0.0,1e-04,0.9181159138679504,1.5217921733856201,1.5217921733856201
495,1.0,0.0,0.0,1e-04,0.9181159138679504,1.5217921733856201,1.5217921733856201
496,1.0,0.0,0.0,1e-04,0.9181159138679504,1.5217921733856201,1.5217921733856201
497,1.0,0.0,0.0,1e-04,0.9181159138679504,1.5217921733856201,1.5217921733856201
498,1.0,0.0,0.0,1e-04,0.9181159138679504,1.5217921733856201,1.5217921733856201
499,1.0,0.0,0.0,1e-04,0.9181159138679504,1.5217921733856201,1.5217921733856201
500,1.0,0.0,0.0,1e-04,0.9181159138679504,1.5217921733856201,1.5217921733856201
