epoch,accuracy,categorical_crossentropy,loss,lr,val_accuracy,val_categorical_crossentropy,val_loss
0,0.3199999928474426,0.7287142872810364,0.7287142872810364,0.001,0.6399999856948853,0.6895446181297302,0.6895446181297302
1,0.7599999904632568,0.4810868799686432,0.4810868799686432,0.001,0.6399999856948853,0.6876113414764404,0.6876113414764404
2,0.8199999928474426,0.4448118209838867,0.4448118209838867,0.001,0.6399999856948853,0.6857284307479858,0.6857284307479858
3,0.8500000238418579,0.3240789473056793,0.3240789473056793,0.001,0.6399999856948853,0.6850202679634094,0.6850202679634094
4,0.8899999856948853,0.26685935258865356,0.26685935258865356,0.001,0.6399999856948853,0.6849732398986816,0.6849732398986816
5,0.8899999856948853,0.22566033899784088,0.22566033899784088,0.001,0.6399999856948853,0.6849423050880432,0.6849423050880432
6,0.9399999976158142,0.1859971284866333,0.1859971284866333,0.001,0.6399999856948853,0.6848289370536804,0.6848289370536804
7,0.9700000286102295,0.14475451409816742,0.14475451409816742,0.001,0.6399999856948853,0.6849607825279236,0.6849607825279236
8,0.9700000286102295,0.11823020875453949,0.11823020875453949,0.001,0.6399999856948853,0.6855155825614929,0.6855155825614929
9,0.9900000095367432,0.09387749433517456,0.09387749433517456,0.001,0.6399999856948853,0.6862552165985107,0.6862552165985107
10,0.9700000286102295,0.09007374942302704,0.09007374942302704,0.001,0.6499999761581421,0.6868103742599487,0.6868103742599487
11,0.9800000190734863,0.08812002837657928,0.08812002837657928,0.001,0.6499999761581421,0.686953604221344,0.686953604221344
12,0.9900000095367432,0.04990212619304657,0.04990212619304657,0.001,0.6600000262260437,0.687225341796875,0.687225341796875
13,0.9900000095367432,0.047419171780347824,0.047419171780347824,0.001,0.6700000166893005,0.6875765323638916,0.6875765323638916
14,1.0,0.03926555812358856,0.03926555812358856,0.001,0.6899999976158142,0.687669038772583,0.687669038772583
15,1.0,0.02324160374701023,0.02324160374701023,0.001,0.6700000166893005,0.6875250935554504,0.6875250935554504
16,1.0,0.02257636748254299,0.02257636748254299,0.001,0.6800000071525574,0.6871904134750366,0.6871904134750366
17,1.0,0.01764366775751114,0.01764366775751114,0.001,0.6800000071525574,0.6868999600410461,0.6868999600410461
18,1.0,0.012826059944927692,0.012826059944927692,0.001,0.6800000071525574,0.686789333820343,0.686789333820343
19,1.0,0.01219396386295557,0.01219396386295557,0.001,0.6700000166893005,0.6868807077407837,0.6868807077407837
20,1.0,0.009406895376741886,0.009406895376741886,0.001,0.6399999856948853,0.6871761083602905,0.6871761083602905
21,1.0,0.008396025747060776,0.008396025747060776,0.001,0.6499999761581421,0.6876157522201538,0.6876157522201538
22,1.0,0.007317847106605768,0.007317847106605768,0.001,0.699999988079071,0.6878750324249268,0.6878750324249268
23,1.0,0.006960602477192879,0.006960602477192879,0.001,0.699999988079071,0.6879247426986694,0.6879247426986694
24,1.0,0.006077601108700037,0.006077601108700037,0.001,0.699999988079071,0.6878911852836609,0.6878911852836609
25,1.0,0.0049500735476613045,0.0049500735476613045,0.001,0.7099999785423279,0.6878869533538818,0.6878869533538818
26,1.0,0.004382054787129164,0.004382054787129164,0.001,0.7200000286102295,0.687998354434967,0.687998354434967
27,1.0,0.00405915779992938,0.00405915779992938,0.001,0.7300000190734863,0.6882731914520264,0.6882731914520264
28,1.0,0.0036853926721960306,0.0036853926721960306,0.001,0.7200000286102295,0.6885858178138733,0.6885858178138733
29,1.0,0.0031727030873298645,0.0031727030873298645,0.001,0.6800000071525574,0.6889272928237915,0.6889272928237915
30,1.0,0.002744860714301467,0.002744860714301467,0.001,0.6299999952316284,0.6892853379249573,0.6892853379249573
31,1.0,0.0025744959712028503,0.0025744959712028503,0.001,0.5299999713897705,0.6896588802337646,0.6896588802337646
32,1.0,0.0025055056903511286,0.0025055056903511286,0.001,0.47999998927116394,0.689979076385498,0.689979076385498
33,1.0,0.0023460923694074154,0.0023460923694074154,0.001,0.46000000834465027,0.6902381181716919,0.6902381181716919
34,1.0,0.0021234815940260887,0.0021234815940260887,0.001,0.46000000834465027,0.6903879046440125,0.6903879046440125
35,1.0,0.0019396942807361484,0.0019396942807361484,0.001,0.41999998688697815,0.6905078887939453,0.6905078887939453
36,1.0,0.0018053257372230291,0.0018053257372230291,0.001,0.4399999976158142,0.6906169652938843,0.6906169652938843
37,1.0,0.0016892011044546962,0.0016892011044546962,0.001,0.4300000071525574,0.6907307505607605,0.6907307505607605
38,1.0,0.0015746381832286716,0.0015746381832286716,0.001,0.4399999976158142,0.6909165382385254,0.6909165382385254
39,1.0,0.0014692641561850905,0.0014692641561850905,0.001,0.4399999976158142,0.6911819577217102,0.6911819577217102
40,1.0,0.00137879210524261,0.00137879210524261,0.001,0.4099999964237213,0.6915636658668518,0.6915636658668518
41,1.0,0.00129957334138453,0.00129957334138453,0.001,0.38999998569488525,0.6920136213302612,0.6920136213302612
42,1.0,0.0012270506704226136,0.0012270506704226136,0.001,0.3799999952316284,0.692504346370697,0.692504346370697
43,1.0,0.001162113156169653,0.001162113156169653,0.001,0.3700000047683716,0.6929664015769958,0.6929664015769958
44,1.0,0.0011105685262009501,0.0011105685262009501,0.001,0.36000001430511475,0.6934100389480591,0.6934100389480591
45,1.0,0.0010681728599593043,0.0010681728599593043,0.001,0.36000001430511475,0.6937525868415833,0.6937525868415833
46,1.0,0.0010290811769664288,0.0010290811769664288,0.001,0.36000001430511475,0.694014310836792,0.694014310836792
47,1.0,0.0009879590943455696,0.0009879590943455696,0.001,0.36000001430511475,0.694205105304718,0.694205105304718
48,1.0,0.000947514723520726,0.000947514723520726,0.001,0.36000001430511475,0.6943291425704956,0.6943291425704956
49,1.0,0.0009074390400201082,0.0009074390400201082,0.001,0.36000001430511475,0.6943983435630798,0.6943983435630798
50,1.0,0.0008701722254045308,0.0008701722254045308,0.001,0.36000001430511475,0.6944334506988525,0.6944334506988525
51,1.0,0.0008353638113476336,0.0008353638113476336,0.001,0.36000001430511475,0.69443678855896,0.69443678855896
52,1.0,0.0008024032576940954,0.0008024032576940954,0.001,0.36000001430511475,0.6943842172622681,0.6943842172622681
53,1.0,0.0007722490117885172,0.0007722490117885172,0.001,0.36000001430511475,0.6943413019180298,0.6943413019180298
54,1.0,0.0007455335580743849,0.0007455335580743849,0.001,0.36000001430511475,0.6942684054374695,0.6942684054374695
55,1.0,0.0007215829100459814,0.0007215829100459814,0.001,0.3700000047683716,0.694282054901123,0.694282054901123
56,1.0,0.0007007074891589582,0.0007007074891589582,0.001,0.3700000047683716,0.6943165063858032,0.6943165063858032
57,1.0,0.0006828172481618822,0.0006828172481618822,0.0005,0.3700000047683716,0.6946660876274109,0.6946660876274109
58,1.0,0.0006744749844074249,0.0006744749844074249,0.0005,0.3700000047683716,0.6951040625572205,0.6951040625572205
59,1.0,0.0006661862717010081,0.0006661862717010081,0.0005,0.3700000047683716,0.6956171989440918,0.6956171989440918
60,1.0,0.0006583359208889306,0.0006583359208889306,0.0005,0.36000001430511475,0.6962264776229858,0.6962264776229858
61,1.0,0.0006504154298454523,0.0006504154298454523,0.0005,0.36000001430511475,0.696901261806488,0.696901261806488
62,1.0,0.0006424656021408737,0.0006424656021408737,0.0005,0.36000001430511475,0.6976944208145142,0.6976944208145142
63,1.0,0.0006351020419970155,0.0006351020419970155,0.0005,0.36000001430511475,0.6985580921173096,0.6985580921173096
64,1.0,0.0006272848695516586,0.0006272848695516586,0.0005,0.36000001430511475,0.699586033821106,0.699586033821106
65,1.0,0.0006199670024216175,0.0006199670024216175,0.0005,0.36000001430511475,0.7006490230560303,0.7006490230560303
66,1.0,0.0006127639207988977,0.0006127639207988977,0.0005,0.36000001430511475,0.7017641663551331,0.7017641663551331
67,1.0,0.0006051458767615259,0.0006051458767615259,0.0005,0.36000001430511475,0.7029727697372437,0.7029727697372437
68,1.0,0.0005979253328405321,0.0005979253328405321,0.0005,0.36000001430511475,0.704282820224762,0.704282820224762
69,1.0,0.0005911187035962939,0.0005911187035962939,0.0005,0.36000001430511475,0.7056872844696045,0.7056872844696045
70,1.0,0.0005845156847499311,0.0005845156847499311,0.0005,0.36000001430511475,0.7071734070777893,0.7071734070777893
71,1.0,0.0005781030631624162,0.0005781030631624162,0.0005,0.36000001430511475,0.7086920142173767,0.7086920142173767
72,1.0,0.0005721407942473888,0.0005721407942473888,0.0005,0.36000001430511475,0.7102557420730591,0.7102557420730591
73,1.0,0.000566640926990658,0.000566640926990658,0.0005,0.36000001430511475,0.711890459060669,0.711890459060669
74,1.0,0.0005612078821286559,0.0005612078821286559,0.0005,0.36000001430511475,0.7136073112487793,0.7136073112487793
75,1.0,0.0005558112170547247,0.0005558112170547247,0.0005,0.36000001430511475,0.7153292298316956,0.7153292298316956
76,1.0,0.0005508134490810335,0.0005508134490810335,0.0005,0.36000001430511475,0.7171761393547058,0.7171761393547058
77,1.0,0.0005458509549498558,0.0005458509549498558,0.0005,0.36000001430511475,0.7190814018249512,0.7190814018249512
78,1.0,0.0005407004500739276,0.0005407004500739276,0.0005,0.36000001430511475,0.7210573554039001,0.7210573554039001
79,1.0,0.0005358786438591778,0.0005358786438591778,0.0005,0.36000001430511475,0.7231131196022034,0.7231131196022034
80,1.0,0.0005308795953169465,0.0005308795953169465,0.0005,0.36000001430511475,0.7251930236816406,0.7251930236816406
81,1.0,0.0005260471371002495,0.0005260471371002495,0.0005,0.36000001430511475,0.7273446917533875,0.7273446917533875
82,1.0,0.0005213490803726017,0.0005213490803726017,0.0005,0.36000001430511475,0.7296449542045593,0.7296449542045593
83,1.0,0.0005167046329006553,0.0005167046329006553,0.0005,0.36000001430511475,0.7319962978363037,0.7319962978363037
84,1.0,0.0005122279399074614,0.0005122279399074614,0.0005,0.36000001430511475,0.7344968318939209,0.7344968318939209
85,1.0,0.0005078212707303464,0.0005078212707303464,0.0005,0.36000001430511475,0.7371035218238831,0.7371035218238831
86,1.0,0.0005036717047914863,0.0005036717047914863,0.0005,0.36000001430511475,0.7397953867912292,0.7397953867912292
87,1.0,0.0004996805801056325,0.0004996805801056325,0.0005,0.36000001430511475,0.7427671551704407,0.7427671551704407
88,1.0,0.0004953795578330755,0.0004953795578330755,0.0005,0.36000001430511475,0.7458430528640747,0.7458430528640747
89,1.0,0.0004914227174594998,0.0004914227174594998,0.0005,0.36000001430511475,0.7491014003753662,0.7491014003753662
90,1.0,0.0004875622980762273,0.0004875622980762273,0.0005,0.36000001430511475,0.752638041973114,0.752638041973114
91,1.0,0.00048363266978412867,0.00048363266978412867,0.0005,0.36000001430511475,0.7564005255699158,0.7564005255699158
92,1.0,0.0004799390153493732,0.0004799390153493732,0.0005,0.36000001430511475,0.7603908777236938,0.7603908777236938
93,1.0,0.00047616532538086176,0.00047616532538086176,0.0005,0.36000001430511475,0.7645318508148193,0.7645318508148193
94,1.0,0.00047263462329283357,0.00047263462329283357,0.0005,0.36000001430511475,0.7688171863555908,0.7688171863555908
95,1.0,0.00046906809438951313,0.00046906809438951313,0.0005,0.36000001430511475,0.7733034491539001,0.7733034491539001
96,1.0,0.00046532042324543,0.00046532042324543,0.0005,0.36000001430511475,0.7780885100364685,0.7780885100364685
97,1.0,0.0004618514212779701,0.0004618514212779701,0.0005,0.36000001430511475,0.7831083536148071,0.7831083536148071
98,1.0,0.00045833230251446366,0.00045833230251446366,0.0005,0.36000001430511475,0.7883689999580383,0.7883689999580383
99,1.0,0.0004549301811493933,0.0004549301811493933,0.0005,0.36000001430511475,0.7937948703765869,0.7937948703765869
100,1.0,0.0004515469481702894,0.0004515469481702894,0.0005,0.36000001430511475,0.7993670701980591,0.7993670701980591
101,1.0,0.00044827081728726625,0.00044827081728726625,0.0005,0.36000001430511475,0.8051875233650208,0.8051875233650208
102,1.0,0.00044515327317640185,0.00044515327317640185,0.0005,0.36000001430511475,0.8113226294517517,0.8113226294517517
103,1.0,0.00044174029608257115,0.00044174029608257115,0.0005,0.36000001430511475,0.817584216594696,0.817584216594696
104,1.0,0.0004384607309475541,0.0004384607309475541,0.0005,0.36000001430511475,0.8242298364639282,0.8242298364639282
105,1.0,0.00043539685430005193,0.00043539685430005193,0.0005,0.36000001430511475,0.8310401439666748,0.8310401439666748
106,1.0,0.00043206612463109195,0.00043206612463109195,0.0005,0.36000001430511475,0.8382256031036377,0.8382256031036377
107,1.0,0.0004291547229513526,0.0004291547229513526,0.00025,0.36000001430511475,0.8461131453514099,0.8461131453514099
108,1.0,0.00042764536920003593,0.00042764536920003593,0.00025,0.36000001430511475,0.8542544841766357,0.8542544841766357
109,1.0,0.00042625400237739086,0.00042625400237739086,0.00025,0.36000001430511475,0.8627015948295593,0.8627015948295593
110,1.0,0.0004247376346029341,0.0004247376346029341,0.00025,0.36000001430511475,0.8714604377746582,0.8714604377746582
111,1.0,0.00042329265852458775,0.00042329265852458775,0.00025,0.36000001430511475,0.8806332945823669,0.8806332945823669
112,1.0,0.00042183935875073075,0.00042183935875073075,0.00025,0.36000001430511475,0.8900802731513977,0.8900802731513977
113,1.0,0.0004203252901788801,0.0004203252901788801,0.00025,0.36000001430511475,0.8998903632164001,0.8998903632164001
114,1.0,0.0004188206803519279,0.0004188206803519279,0.00025,0.36000001430511475,0.9101431965827942,0.9101431965827942
115,1.0,0.00041723993490450084,0.00041723993490450084,0.00025,0.36000001430511475,0.9206838011741638,0.9206838011741638
116,1.0,0.0004156923678237945,0.0004156923678237945,0.00025,0.36000001430511475,0.9314970970153809,0.9314970970153809
117,1.0,0.0004142628167755902,0.0004142628167755902,0.00025,0.36000001430511475,0.942872941493988,0.942872941493988
118,1.0,0.0004127749416511506,0.0004127749416511506,0.00025,0.36000001430511475,0.954599916934967,0.954599916934967
119,1.0,0.000411294138757512,0.000411294138757512,0.00025,0.36000001430511475,0.9668729305267334,0.9668729305267334
120,1.0,0.00040983117651194334,0.00040983117651194334,0.00025,0.36000001430511475,0.9793376326560974,0.9793376326560974
121,1.0,0.0004084397223778069,0.0004084397223778069,0.00025,0.36000001430511475,0.9923613667488098,0.9923613667488098
122,1.0,0.0004071196890436113,0.0004071196890436113,0.00025,0.36000001430511475,1.0058295726776123,1.0058295726776123
123,1.0,0.0004056686593685299,0.0004056686593685299,0.00025,0.36000001430511475,1.019605278968811,1.019605278968811
124,1.0,0.00040419254219159484,0.00040419254219159484,0.00025,0.36000001430511475,1.0340008735656738,1.0340008735656738
125,1.0,0.00040291540790349245,0.00040291540790349245,0.00025,0.36000001430511475,1.0486668348312378,1.0486668348312378
126,1.0,0.00040148934931494296,0.00040148934931494296,0.00025,0.36000001430511475,1.0639837980270386,1.0639837980270386
127,1.0,0.00040004070615395904,0.00040004070615395904,0.00025,0.36000001430511475,1.0794981718063354,1.0794981718063354
128,1.0,0.00039867297164164484,0.00039867297164164484,0.00025,0.36000001430511475,1.0956286191940308,1.0956286191940308
129,1.0,0.0003971814294345677,0.0003971814294345677,0.00025,0.36000001430511475,1.1124004125595093,1.1124004125595093
130,1.0,0.00039580182055942714,0.00039580182055942714,0.00025,0.36000001430511475,1.1295521259307861,1.1295521259307861
131,1.0,0.0003943340852856636,0.0003943340852856636,0.00025,0.36000001430511475,1.1469407081604004,1.1469407081604004
132,1.0,0.0003929580852854997,0.0003929580852854997,0.00025,0.36000001430511475,1.1648657321929932,1.1648657321929932
133,1.0,0.00039163685869425535,0.00039163685869425535,0.00025,0.36000001430511475,1.1835393905639648,1.1835393905639648
134,1.0,0.0003901166783180088,0.0003901166783180088,0.00025,0.36000001430511475,1.2026240825653076,1.2026240825653076
135,1.0,0.00038864294765517116,0.00038864294765517116,0.00025,0.36000001430511475,1.2220180034637451,1.2220180034637451
136,1.0,0.000387424195650965,0.000387424195650965,0.00025,0.36000001430511475,1.2420928478240967,1.2420928478240967
137,1.0,0.00038603629218414426,0.00038603629218414426,0.00025,0.36000001430511475,1.2622458934783936,1.2622458934783936
138,1.0,0.00038471148582175374,0.00038471148582175374,0.00025,0.36000001430511475,1.2830876111984253,1.2830876111984253
139,1.0,0.00038334971759468317,0.00038334971759468317,0.00025,0.36000001430511475,1.3045005798339844,1.3045005798339844
140,1.0,0.00038212735671550035,0.00038212735671550035,0.00025,0.36000001430511475,1.3264518976211548,1.3264518976211548
141,1.0,0.0003807870962191373,0.0003807870962191373,0.00025,0.36000001430511475,1.3485580682754517,1.3485580682754517
142,1.0,0.00037946103839203715,0.00037946103839203715,0.00025,0.36000001430511475,1.371071457862854,1.371071457862854
143,1.0,0.00037813623202964664,0.00037813623202964664,0.00025,0.36000001430511475,1.3938744068145752,1.3938744068145752
144,1.0,0.0003768816532101482,0.0003768816532101482,0.00025,0.36000001430511475,1.417417049407959,1.417417049407959
145,1.0,0.00037561406497843564,0.00037561406497843564,0.00025,0.36000001430511475,1.4414706230163574,1.4414706230163574
146,1.0,0.00037437613354995847,0.00037437613354995847,0.00025,0.36000001430511475,1.4659790992736816,1.4659790992736816
147,1.0,0.00037313703796826303,0.00037313703796826303,0.00025,0.36000001430511475,1.4907809495925903,1.4907809495925903
148,1.0,0.0003717597865033895,0.0003717597865033895,0.00025,0.36000001430511475,1.5162283182144165,1.5162283182144165
149,1.0,0.0003704896953422576,0.0003704896953422576,0.00025,0.36000001430511475,1.5422091484069824,1.5422091484069824
150,1.0,0.0003692590107675642,0.0003692590107675642,0.00025,0.36000001430511475,1.5685522556304932,1.5685522556304932
151,1.0,0.0003680330410134047,0.0003680330410134047,0.00025,0.36000001430511475,1.5953764915466309,1.5953764915466309
152,1.0,0.0003667284909170121,0.0003667284909170121,0.00025,0.36000001430511475,1.622380256652832,1.622380256652832
153,1.0,0.0003654894244391471,0.0003654894244391471,0.00025,0.36000001430511475,1.6500478982925415,1.6500478982925415
154,1.0,0.00036415387876331806,0.00036415387876331806,0.00025,0.36000001430511475,1.677883267402649,1.677883267402649
155,1.0,0.00036294342135079205,0.00036294342135079205,0.00025,0.36000001430511475,1.7059326171875,1.7059326171875
156,1.0,0.00036170080420561135,0.00036170080420561135,0.00025,0.36000001430511475,1.7346760034561157,1.7346760034561157
157,1.0,0.00036050338530912995,0.00036050338530912995,0.000125,0.36000001430511475,1.764204502105713,1.764204502105713
158,1.0,0.0003598910116124898,0.0003598910116124898,0.000125,0.36000001430511475,1.794173002243042,1.794173002243042
159,1.0,0.000359319121344015,0.000359319121344015,0.000125,0.36000001430511475,1.8240774869918823,1.8240774869918823
160,1.0,0.00035869600833393633,0.00035869600833393633,0.000125,0.36000001430511475,1.8546931743621826,1.8546931743621826
161,1.0,0.00035797280725091696,0.00035797280725091696,0.000125,0.36000001430511475,1.8852289915084839,1.8852289915084839
162,1.0,0.0003573258582036942,0.0003573258582036942,0.000125,0.36000001430511475,1.9158958196640015,1.9158958196640015
163,1.0,0.00035668484633788466,0.00035668484633788466,0.000125,0.36000001430511475,1.9468181133270264,1.9468181133270264
164,1.0,0.00035610105260275304,0.00035610105260275304,0.000125,0.36000001430511475,1.9782934188842773,1.9782934188842773
165,1.0,0.0003554660943336785,0.0003554660943336785,0.000125,0.36000001430511475,2.009887218475342,2.009887218475342
166,1.0,0.00035489059519022703,0.00035489059519022703,0.000125,0.36000001430511475,2.041863441467285,2.041863441467285
167,1.0,0.00035435083555057645,0.00035435083555057645,0.000125,0.36000001430511475,2.073819637298584,2.073819637298584
168,1.0,0.0003536813019309193,0.0003536813019309193,0.000125,0.36000001430511475,2.106283664703369,2.106283664703369
169,1.0,0.0003530653193593025,0.0003530653193593025,0.000125,0.36000001430511475,2.1388044357299805,2.1388044357299805
170,1.0,0.00035252078669145703,0.00035252078669145703,0.000125,0.36000001430511475,2.171368360519409,2.171368360519409
171,1.0,0.00035195008968003094,0.00035195008968003094,0.000125,0.36000001430511475,2.2037432193756104,2.2037432193756104
172,1.0,0.0003512935945764184,0.0003512935945764184,0.000125,0.36000001430511475,2.236605644226074,2.236605644226074
173,1.0,0.0003506704524625093,0.0003506704524625093,0.000125,0.36000001430511475,2.2694387435913086,2.2694387435913086
174,1.0,0.0003499341837596148,0.0003499341837596148,0.000125,0.36000001430511475,2.3026819229125977,2.3026819229125977
175,1.0,0.0003493444237392396,0.0003493444237392396,0.000125,0.36000001430511475,2.335634708404541,2.335634708404541
176,1.0,0.0003488320508040488,0.0003488320508040488,0.000125,0.36000001430511475,2.3689310550689697,2.3689310550689697
177,1.0,0.0003482184838503599,0.0003482184838503599,0.000125,0.36000001430511475,2.4027817249298096,2.4027817249298096
178,1.0,0.0003476608544588089,0.0003476608544588089,0.000125,0.36000001430511475,2.4361765384674072,2.4361765384674072
179,1.0,0.0003470031952019781,0.0003470031952019781,0.000125,0.36000001430511475,2.469093084335327,2.469093084335327
180,1.0,0.00034634434268809855,0.00034634434268809855,0.000125,0.36000001430511475,2.5024421215057373,2.5024421215057373
181,1.0,0.00034572952426970005,0.00034572952426970005,0.000125,0.36000001430511475,2.5356905460357666,2.5356905460357666
182,1.0,0.00034513260470703244,0.00034513260470703244,0.000125,0.36000001430511475,2.568760633468628,2.568760633468628
183,1.0,0.0003445797774475068,0.0003445797774475068,0.000125,0.36000001430511475,2.602076530456543,2.602076530456543
184,1.0,0.00034395663533359766,0.00034395663533359766,0.000125,0.36000001430511475,2.63551664352417,2.63551664352417
185,1.0,0.00034330252674408257,0.00034330252674408257,0.000125,0.36000001430511475,2.6687090396881104,2.6687090396881104
186,1.0,0.0003427532792557031,0.0003427532792557031,0.000125,0.36000001430511475,2.701930284500122,2.701930284500122
187,1.0,0.00034217420034110546,0.00034217420034110546,0.000125,0.36000001430511475,2.7350103855133057,2.7350103855133057
188,1.0,0.00034145574318245053,0.00034145574318245053,0.000125,0.36000001430511475,2.767526865005493,2.767526865005493
189,1.0,0.00034101729397661984,0.00034101729397661984,0.000125,0.36000001430511475,2.800891399383545,2.800891399383545
190,1.0,0.00034042037441395223,0.00034042037441395223,0.000125,0.36000001430511475,2.8339133262634277,2.8339133262634277
191,1.0,0.0003397781401872635,0.0003397781401872635,0.000125,0.36000001430511475,2.8667404651641846,2.8667404651641846
192,1.0,0.0003392086655367166,0.0003392086655367166,0.000125,0.36000001430511475,2.8994622230529785,2.8994622230529785
193,1.0,0.0003386069438420236,0.0003386069438420236,0.000125,0.36000001430511475,2.932152032852173,2.932152032852173
194,1.0,0.00033801005338318646,0.00033801005338318646,0.000125,0.36000001430511475,2.964958429336548,2.964958429336548
195,1.0,0.0003374381340108812,0.0003374381340108812,0.000125,0.36000001430511475,2.997483730316162,2.997483730316162
196,1.0,0.0003368555335327983,0.0003368555335327983,0.000125,0.36000001430511475,3.0295073986053467,3.0295073986053467
197,1.0,0.00033634674036875367,0.00033634674036875367,0.000125,0.36000001430511475,3.0620193481445312,3.0620193481445312
198,1.0,0.0003356735687702894,0.0003356735687702894,0.000125,0.36000001430511475,3.0937466621398926,3.0937466621398926
199,1.0,0.00033511000219732523,0.00033511000219732523,0.000125,0.36000001430511475,3.1254231929779053,3.1254231929779053
200,1.0,0.00033453453215770423,0.00033453453215770423,0.000125,0.36000001430511475,3.1567320823669434,3.1567320823669434
201,1.0,0.00033388283918611705,0.00033388283918611705,0.000125,0.36000001430511475,3.188171148300171,3.188171148300171
202,1.0,0.00033326438278891146,0.00033326438278891146,0.000125,0.36000001430511475,3.2193167209625244,3.2193167209625244
203,1.0,0.0003326817532069981,0.0003326817532069981,0.000125,0.36000001430511475,3.249953269958496,3.249953269958496
204,1.0,0.00033209912362508476,0.00033209912362508476,0.000125,0.36000001430511475,3.2810134887695312,3.2810134887695312
205,1.0,0.00033152246032841504,0.00033152246032841504,0.000125,0.36000001430511475,3.311723232269287,3.311723232269287
206,1.0,0.0003308647428639233,0.0003308647428639233,0.000125,0.36000001430511475,3.342167615890503,3.342167615890503
207,1.0,0.0003302785335108638,0.0003302785335108638,1e-04,0.36000001430511475,3.372422695159912,3.372422695159912
208,1.0,0.0003297995135653764,0.0003297995135653764,1e-04,0.36000001430511475,3.4022252559661865,3.4022252559661865
209,1.0,0.0003293717745691538,0.0003293717745691538,1e-04,0.36000001430511475,3.431948184967041,3.431948184967041
210,1.0,0.0003289237502031028,0.0003289237502031028,1e-04,0.36000001430511475,3.461590051651001,3.461590051651001
211,1.0,0.00032849126728251576,0.00032849126728251576,1e-04,0.36000001430511475,3.49149227142334,3.49149227142334
212,1.0,0.0003280885284766555,0.0003280885284766555,1e-04,0.36000001430511475,3.5205695629119873,3.5205695629119873
213,1.0,0.00032767149969004095,0.00032767149969004095,1e-04,0.36000001430511475,3.5498077869415283,3.5498077869415283
214,1.0,0.00032706622732803226,0.00032706622732803226,1e-04,0.36000001430511475,3.578350782394409,3.578350782394409
215,1.0,0.0003265002742409706,0.0003265002742409706,1e-04,0.36000001430511475,3.6068003177642822,3.6068003177642822
216,1.0,0.0003260713128838688,0.0003260713128838688,1e-04,0.36000001430511475,3.6355676651000977,3.6355676651000977
217,1.0,0.0003255994524806738,0.0003255994524806738,1e-04,0.36000001430511475,3.663545608520508,3.663545608520508
218,1.0,0.0003251908055972308,0.0003251908055972308,1e-04,0.36000001430511475,3.6911065578460693,3.6911065578460693
219,1.0,0.0003247832937631756,0.0003247832937631756,1e-04,0.36000001430511475,3.7184953689575195,3.7184953689575195
220,1.0,0.000324344786349684,0.000324344786349684,1e-04,0.36000001430511475,3.745866298675537,3.745866298675537
221,1.0,0.0003239075012970716,0.0003239075012970716,1e-04,0.36000001430511475,3.7725961208343506,3.7725961208343506
222,1.0,0.00032335706055164337,0.00032335706055164337,1e-04,0.36000001430511475,3.7991421222686768,3.7991421222686768
223,1.0,0.000322893523843959,0.000322893523843959,1e-04,0.36000001430511475,3.8261075019836426,3.8261075019836426
224,1.0,0.00032239072606898844,0.00032239072606898844,1e-04,0.36000001430511475,3.8521249294281006,3.8521249294281006
225,1.0,0.0003218938654754311,0.0003218938654754311,1e-04,0.36000001430511475,3.878106117248535,3.878106117248535
226,1.0,0.0003214172611478716,0.0003214172611478716,1e-04,0.36000001430511475,3.904257297515869,3.904257297515869
227,1.0,0.0003210109716746956,0.0003210109716746956,1e-04,0.36000001430511475,3.9295244216918945,3.9295244216918945
228,1.0,0.0003206309047527611,0.0003206309047527611,1e-04,0.36000001430511475,3.954892635345459,3.954892635345459
229,1.0,0.00032017097692005336,0.00032017097692005336,1e-04,0.36000001430511475,3.9792025089263916,3.9792025089263916
230,1.0,0.00031963957007974386,0.00031963957007974386,1e-04,0.36000001430511475,4.003637790679932,4.003637790679932
231,1.0,0.0003190938732586801,0.0003190938732586801,1e-04,0.36000001430511475,4.027581691741943,4.027581691741943
232,1.0,0.0003187042602803558,0.0003187042602803558,1e-04,0.36000001430511475,4.051523208618164,4.051523208618164
233,1.0,0.00031823478639125824,0.00031823478639125824,1e-04,0.36000001430511475,4.07505464553833,4.07505464553833
234,1.0,0.00031777366530150175,0.00031777366530150175,1e-04,0.36000001430511475,4.0988969802856445,4.0988969802856445
235,1.0,0.0003173185104969889,0.0003173185104969889,1e-04,0.36000001430511475,4.122269153594971,4.122269153594971
236,1.0,0.00031687167938798666,0.00031687167938798666,1e-04,0.36000001430511475,4.145231246948242,4.145231246948242
237,1.0,0.0003162997600156814,0.0003162997600156814,1e-04,0.36000001430511475,4.1675801277160645,4.1675801277160645
238,1.0,0.00031587202101945877,0.00031587202101945877,1e-04,0.36000001430511475,4.190174579620361,4.190174579620361
239,1.0,0.00031536913593299687,0.00031536913593299687,1e-04,0.36000001430511475,4.211627006530762,4.211627006530762
240,1.0,0.0003148592368233949,0.0003148592368233949,1e-04,0.36000001430511475,4.232973098754883,4.232973098754883
241,1.0,0.00031443621264770627,0.00031443621264770627,1e-04,0.36000001430511475,4.254278659820557,4.254278659820557
242,1.0,0.0003139250329695642,0.0003139250329695642,1e-04,0.36000001430511475,4.274777889251709,4.274777889251709
243,1.0,0.00031349013443104923,0.00031349013443104923,1e-04,0.36000001430511475,4.295233249664307,4.295233249664307
244,1.0,0.00031308262259699404,0.00031308262259699404,1e-04,0.36000001430511475,4.315896511077881,4.315896511077881
245,1.0,0.0003126453375443816,0.0003126453375443816,1e-04,0.36000001430511475,4.3359785079956055,4.3359785079956055
246,1.0,0.000312233081785962,0.000312233081785962,1e-04,0.36000001430511475,4.356238842010498,4.356238842010498
247,1.0,0.0003117195446975529,0.0003117195446975529,1e-04,0.36000001430511475,4.375843048095703,4.375843048095703
248,1.0,0.00031125484383665025,0.00031125484383665025,1e-04,0.36000001430511475,4.394678115844727,4.394678115844727
249,1.0,0.00031078417669050395,0.00031078417669050395,1e-04,0.36000001430511475,4.414175510406494,4.414175510406494
250,1.0,0.00031034095445647836,0.00031034095445647836,1e-04,0.36000001430511475,4.4326863288879395,4.4326863288879395
251,1.0,0.0003098953457083553,0.0003098953457083553,1e-04,0.36000001430511475,4.451272010803223,4.451272010803223
252,1.0,0.0003095283464062959,0.0003095283464062959,1e-04,0.36000001430511475,4.470188140869141,4.470188140869141
253,1.0,0.0003090958052780479,0.0003090958052780479,1e-04,0.36000001430511475,4.487337112426758,4.487337112426758
254,1.0,0.00030867039458826184,0.00030867039458826184,1e-04,0.36000001430511475,4.504676342010498,4.504676342010498
255,1.0,0.0003082223702222109,0.0003082223702222109,1e-04,0.36000001430511475,4.521967887878418,4.521967887878418
256,1.0,0.0003077207366004586,0.0003077207366004586,1e-04,0.36000001430511475,4.538421630859375,4.538421630859375
257,1.0,0.00030726080876775086,0.00030726080876775086,1e-04,0.36000001430511475,4.555266857147217,4.555266857147217
258,1.0,0.00030673411674797535,0.00030673411674797535,1e-04,0.36000001430511475,4.571835041046143,4.571835041046143
259,1.0,0.00030633495771326125,0.00030633495771326125,1e-04,0.36000001430511475,4.587609767913818,4.587609767913818
260,1.0,0.0003059096052311361,0.0003059096052311361,1e-04,0.36000001430511475,4.603593349456787,4.603593349456787
261,1.0,0.0003054246190004051,0.0003054246190004051,1e-04,0.36000001430511475,4.6188764572143555,4.6188764572143555
262,1.0,0.00030500523280352354,0.00030500523280352354,1e-04,0.36000001430511475,4.634051322937012,4.634051322937012
263,1.0,0.00030457982211373746,0.00030457982211373746,1e-04,0.36000001430511475,4.648509502410889,4.648509502410889
264,1.0,0.00030416870140470564,0.00030416870140470564,1e-04,0.36000001430511475,4.66421365737915,4.66421365737915
265,1.0,0.0003036754496861249,0.0003036754496861249,1e-04,0.36000001430511475,4.677466869354248,4.677466869354248
266,1.0,0.0003032524255104363,0.0003032524255104363,1e-04,0.36000001430511475,4.690974235534668,4.690974235534668
267,1.0,0.0003026888007298112,0.0003026888007298112,1e-04,0.36000001430511475,4.70460844039917,4.70460844039917
268,1.0,0.00030224796500988305,0.00030224796500988305,1e-04,0.36000001430511475,4.717956066131592,4.717956066131592
269,1.0,0.00030179638997651637,0.00030179638997651637,1e-04,0.36000001430511475,4.730476379394531,4.730476379394531
270,1.0,0.00030139004229567945,0.00030139004229567945,1e-04,0.36000001430511475,4.7431416511535645,4.7431416511535645
271,1.0,0.00030095872352831066,0.00030095872352831066,1e-04,0.36000001430511475,4.754830837249756,4.754830837249756
272,1.0,0.0003004892496392131,0.0003004892496392131,1e-04,0.36000001430511475,4.767404079437256,4.767404079437256
273,1.0,0.00029999235994182527,0.00029999235994182527,1e-04,0.36000001430511475,4.77890682220459,4.77890682220459
274,1.0,0.0002995407849084586,0.0002995407849084586,1e-04,0.36000001430511475,4.790038585662842,4.790038585662842
275,1.0,0.0002991832734551281,0.0002991832734551281,1e-04,0.36000001430511475,4.800472259521484,4.800472259521484
276,1.0,0.0002986983163282275,0.0002986983163282275,1e-04,0.36000001430511475,4.810957908630371,4.810957908630371
277,1.0,0.0002982276491820812,0.0002982276491820812,1e-04,0.36000001430511475,4.82071590423584,4.82071590423584
278,1.0,0.00029780578915961087,0.00029780578915961087,1e-04,0.36000001430511475,4.829132080078125,4.829132080078125
279,1.0,0.00029734705458395183,0.00029734705458395183,1e-04,0.36000001430511475,4.838659763336182,4.838659763336182
280,1.0,0.00029686689958907664,0.00029686689958907664,1e-04,0.36000001430511475,4.846992015838623,4.846992015838623
281,1.0,0.00029644506867043674,0.00029644506867043674,1e-04,0.36000001430511475,4.855419635772705,4.855419635772705
282,1.0,0.0002959946868941188,0.0002959946868941188,1e-04,0.36000001430511475,4.863929748535156,4.863929748535156
283,1.0,0.0002956014359369874,0.0002956014359369874,1e-04,0.36000001430511475,4.871519088745117,4.871519088745117
284,1.0,0.00029519275994971395,0.00029519275994971395,1e-04,0.36000001430511475,4.879467487335205,4.879467487335205
285,1.0,0.00029480905504897237,0.00029480905504897237,1e-04,0.36000001430511475,4.88569974899292,4.88569974899292
286,1.0,0.00029434554744511843,0.00029434554744511843,1e-04,0.36000001430511475,4.89218282699585,4.89218282699585
287,1.0,0.0002939118130598217,0.0002939118130598217,1e-04,0.36000001430511475,4.8997416496276855,4.8997416496276855
288,1.0,0.00029350907425396144,0.00029350907425396144,1e-04,0.36000001430511475,4.906438827514648,4.906438827514648
289,1.0,0.00029302173061296344,0.00029302173061296344,1e-04,0.36000001430511475,4.912127494812012,4.912127494812012
290,1.0,0.0002925558073911816,0.0002925558073911816,1e-04,0.36000001430511475,4.917356491088867,4.917356491088867
291,1.0,0.0002920792030636221,0.0002920792030636221,1e-04,0.36000001430511475,4.922943115234375,4.922943115234375
292,1.0,0.00029167524189688265,0.00029167524189688265,1e-04,0.36000001430511475,4.928771495819092,4.928771495819092
293,1.0,0.00029117122176103294,0.00029117122176103294,1e-04,0.36000001430511475,4.932778835296631,4.932778835296631
294,1.0,0.00029072919278405607,0.00029072919278405607,1e-04,0.36000001430511475,4.937178134918213,4.937178134918213
295,1.0,0.00029029903816990554,0.00029029903816990554,1e-04,0.36000001430511475,4.940426349639893,4.940426349639893
296,1.0,0.0002897926315199584,0.0002897926315199584,1e-04,0.36000001430511475,4.9427008628845215,4.9427008628845215
297,1.0,0.0002893779310397804,0.0002893779310397804,1e-04,0.36000001430511475,4.9458417892456055,4.9458417892456055
298,1.0,0.00028894300339743495,0.00028894300339743495,1e-04,0.36000001430511475,4.949287414550781,4.949287414550781
299,1.0,0.000288477138383314,0.000288477138383314,1e-04,0.36000001430511475,4.952059745788574,4.952059745788574
300,1.0,0.0002881160471588373,0.0002881160471588373,1e-04,0.36000001430511475,4.955538749694824,4.955538749694824
301,1.0,0.0002876537328120321,0.0002876537328120321,1e-04,0.36000001430511475,4.957258224487305,4.957258224487305
302,1.0,0.0002872533514164388,0.0002872533514164388,1e-04,0.36000001430511475,4.958532810211182,4.958532810211182
303,1.0,0.00028681010007858276,0.00028681010007858276,1e-04,0.36000001430511475,4.960546493530273,4.960546493530273
304,1.0,0.0002863906556740403,0.0002863906556740403,1e-04,0.36000001430511475,4.960550785064697,4.960550785064697
305,1.0,0.0002859795349650085,0.0002859795349650085,1e-04,0.36000001430511475,4.960881233215332,4.960881233215332
306,1.0,0.0002855219936463982,0.0002855219936463982,1e-04,0.36000001430511475,4.961663246154785,4.961663246154785
307,1.0,0.00028508587274700403,0.00028508587274700403,1e-04,0.36000001430511475,4.962164402008057,4.962164402008057
308,1.0,0.00028465691138990223,0.00028465691138990223,1e-04,0.36000001430511475,4.962477684020996,4.962477684020996
309,1.0,0.00028424340416677296,0.00028424340416677296,1e-04,0.36000001430511475,4.960980415344238,4.960980415344238
310,1.0,0.00028380847652442753,0.00028380847652442753,1e-04,0.36000001430511475,4.9594879150390625,4.9594879150390625
311,1.0,0.0002833592880051583,0.0002833592880051583,1e-04,0.36000001430511475,4.959177017211914,4.959177017211914
312,1.0,0.00028291126363910735,0.00028291126363910735,1e-04,0.36000001430511475,4.956939220428467,4.956939220428467
313,1.0,0.00028253826894797385,0.00028253826894797385,1e-04,0.36000001430511475,4.955752372741699,4.955752372741699
314,1.0,0.0002821355010382831,0.0002821355010382831,1e-04,0.36000001430511475,4.953121662139893,4.953121662139893
315,1.0,0.00028174108592793345,0.00028174108592793345,1e-04,0.36000001430511475,4.950033187866211,4.950033187866211
316,1.0,0.00028132519219070673,0.00028132519219070673,1e-04,0.36000001430511475,4.946707725524902,4.946707725524902
317,1.0,0.00028088674298487604,0.00028088674298487604,1e-04,0.36000001430511475,4.944132328033447,4.944132328033447
318,1.0,0.0002804458199534565,0.0002804458199534565,1e-04,0.36000001430511475,4.940755367279053,4.940755367279053
319,1.0,0.0002800657239276916,0.0002800657239276916,1e-04,0.36000001430511475,4.936433792114258,4.936433792114258
320,1.0,0.0002795867039822042,0.0002795867039822042,1e-04,0.36000001430511475,4.932376861572266,4.932376861572266
321,1.0,0.00027920896536670625,0.00027920896536670625,1e-04,0.36000001430511475,4.926794528961182,4.926794528961182
322,1.0,0.0002788121346384287,0.0002788121346384287,1e-04,0.36000001430511475,4.921971321105957,4.921971321105957
323,1.0,0.00027841294649988413,0.00027841294649988413,1e-04,0.36000001430511475,4.91654109954834,4.91654109954834
324,1.0,0.00027801020769402385,0.00027801020769402385,1e-04,0.36000001430511475,4.909425735473633,4.909425735473633
325,1.0,0.0002775705070234835,0.0002775705070234835,1e-04,0.36000001430511475,4.90377950668335,4.90377950668335
326,1.0,0.0002771772851701826,0.0002771772851701826,1e-04,0.36000001430511475,4.897873878479004,4.897873878479004
327,1.0,0.0002767876139841974,0.0002767876139841974,1e-04,0.36000001430511475,4.891611099243164,4.891611099243164
328,1.0,0.00027635146398097277,0.00027635146398097277,1e-04,0.36000001430511475,4.884067058563232,4.884067058563232
329,1.0,0.0002758509945124388,0.0002758509945124388,1e-04,0.36000001430511475,4.878098487854004,4.878098487854004
330,1.0,0.00027541135204955935,0.00027541135204955935,1e-04,0.36000001430511475,4.870080471038818,4.870080471038818
331,1.0,0.000274976366199553,0.000274976366199553,1e-04,0.36000001430511475,4.861892223358154,4.861892223358154
332,1.0,0.0002745307283475995,0.0002745307283475995,1e-04,0.36000001430511475,4.8537139892578125,4.8537139892578125
333,1.0,0.0002741220232564956,0.0002741220232564956,1e-04,0.36000001430511475,4.845816612243652,4.845816612243652
334,1.0,0.0002737204486038536,0.0002737204486038536,1e-04,0.36000001430511475,4.836822986602783,4.836822986602783
335,1.0,0.00027329623117111623,0.00027329623117111623,1e-04,0.36000001430511475,4.827113628387451,4.827113628387451
336,1.0,0.00027286369004286826,0.00027286369004286826,1e-04,0.36000001430511475,4.817692279815674,4.817692279815674
337,1.0,0.0002724788209889084,0.0002724788209889084,1e-04,0.36000001430511475,4.8094096183776855,4.8094096183776855
338,1.0,0.0002719521289691329,0.0002719521289691329,1e-04,0.36000001430511475,4.799182891845703,4.799182891845703
339,1.0,0.0002715636510401964,0.0002715636510401964,1e-04,0.36000001430511475,4.788003921508789,4.788003921508789
340,1.0,0.0002711716224439442,0.0002711716224439442,1e-04,0.36000001430511475,4.77552604675293,4.77552604675293
341,1.0,0.000270797434495762,0.000270797434495762,1e-04,0.36000001430511475,4.763673305511475,4.763673305511475
342,1.0,0.00027034227969124913,0.00027034227969124913,1e-04,0.36000001430511475,4.752217769622803,4.752217769622803
343,1.0,0.0002699668984860182,0.0002699668984860182,1e-04,0.36000001430511475,4.739767074584961,4.739767074584961
344,1.0,0.0002695438452064991,0.0002695438452064991,1e-04,0.36000001430511475,4.727605819702148,4.727605819702148
345,1.0,0.0002691267873160541,0.0002691267873160541,1e-04,0.36000001430511475,4.714736461639404,4.714736461639404
346,1.0,0.00026876217452809215,0.00026876217452809215,1e-04,0.36000001430511475,4.702121734619141,4.702121734619141
347,1.0,0.0002683569910004735,0.0002683569910004735,1e-04,0.36000001430511475,4.688924789428711,4.688924789428711
348,1.0,0.00026790302945300937,0.00026790302945300937,1e-04,0.36000001430511475,4.676315784454346,4.676315784454346
349,1.0,0.00026750739198178053,0.00026750739198178053,1e-04,0.36000001430511475,4.663073539733887,4.663073539733887
350,1.0,0.0002671773254405707,0.0002671773254405707,1e-04,0.36000001430511475,4.649281024932861,4.649281024932861
351,1.0,0.0002667197259142995,0.0002667197259142995,1e-04,0.36000001430511475,4.633568286895752,4.633568286895752
352,1.0,0.0002663824998307973,0.0002663824998307973,1e-04,0.36000001430511475,4.619104862213135,4.619104862213135
353,1.0,0.0002659856982063502,0.0002659856982063502,1e-04,0.36000001430511475,4.604620933532715,4.604620933532715
354,1.0,0.0002655853168107569,0.0002655853168107569,1e-04,0.36000001430511475,4.589829921722412,4.589829921722412
355,1.0,0.00026515868376009166,0.00026515868376009166,1e-04,0.36000001430511475,4.574398040771484,4.574398040771484
356,1.0,0.00026473449543118477,0.00026473449543118477,1e-04,0.36000001430511475,4.558438301086426,4.558438301086426
357,1.0,0.0002643591433297843,0.0002643591433297843,1e-04,0.36000001430511475,4.54295539855957,4.54295539855957
358,1.0,0.00026393012376502156,0.00026393012376502156,1e-04,0.36000001430511475,4.52586030960083,4.52586030960083
359,1.0,0.00026352854911237955,0.00026352854911237955,1e-04,0.36000001430511475,4.508177757263184,4.508177757263184
360,1.0,0.00026306501240469515,0.00026306501240469515,1e-04,0.36000001430511475,4.490322113037109,4.490322113037109
361,1.0,0.0002626586938276887,0.0002626586938276887,1e-04,0.36000001430511475,4.472987174987793,4.472987174987793
362,1.0,0.00026226663612760603,0.00026226663612760603,1e-04,0.36000001430511475,4.454355239868164,4.454355239868164
363,1.0,0.00026191986398771405,0.00026191986398771405,1e-04,0.36000001430511475,4.435704708099365,4.435704708099365
364,1.0,0.00026148612960241735,0.00026148612960241735,1e-04,0.36000001430511475,4.417858123779297,4.417858123779297
365,1.0,0.0002610428200569004,0.0002610428200569004,1e-04,0.36000001430511475,4.399806022644043,4.399806022644043
366,1.0,0.0002605971822049469,0.0002605971822049469,1e-04,0.36000001430511475,4.38015604019165,4.38015604019165
367,1.0,0.00026025398983620107,0.00026025398983620107,1e-04,0.36000001430511475,4.359935283660889,4.359935283660889
368,1.0,0.00025981783983297646,0.00025981783983297646,1e-04,0.36000001430511475,4.339777946472168,4.339777946472168
369,1.0,0.0002594615507405251,0.0002594615507405251,1e-04,0.36000001430511475,4.319604396820068,4.319604396820068
370,1.0,0.00025905281654559076,0.00025905281654559076,1e-04,0.36000001430511475,4.297888278961182,4.297888278961182
371,1.0,0.0002587155904620886,0.0002587155904620886,1e-04,0.36000001430511475,4.277855396270752,4.277855396270752
372,1.0,0.0002582997258286923,0.0002582997258286923,1e-04,0.36000001430511475,4.257660388946533,4.257660388946533
373,1.0,0.00025790766812860966,0.00025790766812860966,1e-04,0.36000001430511475,4.2358174324035645,4.2358174324035645
374,1.0,0.0002574822574388236,0.0002574822574388236,1e-04,0.36000001430511475,4.214352607727051,4.214352607727051
375,1.0,0.00025713909417390823,0.00025713909417390823,1e-04,0.36000001430511475,4.192196846008301,4.192196846008301
376,1.0,0.0002567326882854104,0.0002567326882854104,1e-04,0.36000001430511475,4.170440196990967,4.170440196990967
377,1.0,0.00025635017664171755,0.00025635017664171755,1e-04,0.36000001430511475,4.149150371551514,4.149150371551514
378,1.0,0.0002559498243499547,0.0002559498243499547,1e-04,0.36000001430511475,4.124711513519287,4.124711513519287
379,1.0,0.0002555565442889929,0.0002555565442889929,1e-04,0.36000001430511475,4.102231979370117,4.102231979370117
380,1.0,0.00025519312475807965,0.00025519312475807965,1e-04,0.36000001430511475,4.077638626098633,4.077638626098633
381,1.0,0.00025479632313363254,0.00025479632313363254,1e-04,0.36000001430511475,4.054546356201172,4.054546356201172
382,1.0,0.00025441378238610923,0.00025441378238610923,1e-04,0.36000001430511475,4.0300469398498535,4.0300469398498535
383,1.0,0.0002539884008001536,0.0002539884008001536,1e-04,0.36000001430511475,4.006211757659912,4.006211757659912
384,1.0,0.0002535999519750476,0.0002535999519750476,1e-04,0.36000001430511475,3.9817545413970947,3.9817545413970947
385,1.0,0.00025314828963018954,0.00025314828963018954,1e-04,0.36000001430511475,3.9567127227783203,3.9567127227783203
386,1.0,0.0002527895849198103,0.0002527895849198103,1e-04,0.36000001430511475,3.9320757389068604,3.9320757389068604
387,1.0,0.0002524428709875792,0.0002524428709875792,1e-04,0.36000001430511475,3.9072425365448,3.9072425365448
388,1.0,0.0002520495909266174,0.0002520495909266174,1e-04,0.36000001430511475,3.881133794784546,3.881133794784546
389,1.0,0.00025168852880597115,0.00025168852880597115,1e-04,0.36000001430511475,3.854595422744751,3.854595422744751
390,1.0,0.0002512881183065474,0.0002512881183065474,1e-04,0.36000001430511475,3.8296709060668945,3.8296709060668945
391,1.0,0.00025092228315770626,0.00025092228315770626,1e-04,0.36000001430511475,3.8030529022216797,3.8030529022216797
392,1.0,0.0002505564480088651,0.0002505564480088651,1e-04,0.36000001430511475,3.7766668796539307,3.7766668796539307
393,1.0,0.0002502084826119244,0.0002502084826119244,1e-04,0.36000001430511475,3.750351667404175,3.750351667404175
394,1.0,0.0002497890091035515,0.0002497890091035515,1e-04,0.36000001430511475,3.7239534854888916,3.7239534854888916
395,1.0,0.00024942317395471036,0.00024942317395471036,1e-04,0.36000001430511475,3.697275161743164,3.697275161743164
396,1.0,0.0002489965409040451,0.0002489965409040451,1e-04,0.36000001430511475,3.6702170372009277,3.6702170372009277
397,1.0,0.00024862715508788824,0.00024862715508788824,1e-04,0.36000001430511475,3.6417529582977295,3.6417529582977295
398,1.0,0.0002483113494236022,0.0002483113494236022,1e-04,0.36000001430511475,3.614445686340332,3.614445686340332
399,1.0,0.0002478585229255259,0.0002478585229255259,1e-04,0.36000001430511475,3.585871696472168,3.585871696472168
400,1.0,0.0002475070068612695,0.0002475070068612695,1e-04,0.36000001430511475,3.557936191558838,3.557936191558838
401,1.0,0.00024711497826501727,0.00024711497826501727,1e-04,0.3700000047683716,3.5291101932525635,3.5291101932525635
402,1.0,0.00024669189588166773,0.00024669189588166773,1e-04,0.3700000047683716,3.502122163772583,3.502122163772583
403,1.0,0.0002462795819155872,0.0002462795819155872,1e-04,0.3700000047683716,3.472282648086548,3.472282648086548
404,1.0,0.00024595067952759564,0.00024595067952759564,1e-04,0.3700000047683716,3.4435129165649414,3.4435129165649414
405,1.0,0.0002454990753903985,0.0002454990753903985,1e-04,0.3700000047683716,3.4156854152679443,3.4156854152679443
406,1.0,0.0002450831816531718,0.0002450831816531718,1e-04,0.3799999952316284,3.387800931930542,3.387800931930542
407,1.0,0.00024474001838825643,0.00024474001838825643,1e-04,0.3799999952316284,3.3598389625549316,3.3598389625549316
408,1.0,0.00024437770480290055,0.00024437770480290055,1e-04,0.3799999952316284,3.3304200172424316,3.3304200172424316
409,1.0,0.00024406191369052976,0.00024406191369052976,1e-04,0.3799999952316284,3.301316499710083,3.301316499710083
410,1.0,0.00024368654703721404,0.00024368654703721404,1e-04,0.3799999952316284,3.272005319595337,3.272005319595337
411,1.0,0.00024335885245818645,0.00024335885245818645,1e-04,0.3799999952316284,3.2429909706115723,3.2429909706115723
412,1.0,0.00024299418146256357,0.00024299418146256357,1e-04,0.3799999952316284,3.214681625366211,3.214681625366211
413,1.0,0.0002426724531687796,0.0002426724531687796,1e-04,0.4000000059604645,3.1863908767700195,3.1863908767700195
414,1.0,0.00024229110567830503,0.00024229110567830503,1e-04,0.4000000059604645,3.1584689617156982,3.1584689617156982
415,1.0,0.00024190620752051473,0.00024190620752051473,1e-04,0.41999998688697815,3.1295976638793945,3.1295976638793945
416,1.0,0.0002415403287159279,0.0002415403287159279,1e-04,0.41999998688697815,3.1019561290740967,3.1019561290740967
417,1.0,0.00024116852728184313,0.00024116852728184313,1e-04,0.41999998688697815,3.0731542110443115,3.0731542110443115
418,1.0,0.00024074311659205705,0.00024074311659205705,1e-04,0.41999998688697815,3.0451571941375732,3.0451571941375732
419,1.0,0.0002404332917649299,0.0002404332917649299,1e-04,0.41999998688697815,3.017191171646118,3.017191171646118
420,1.0,0.00024005791055969894,0.00024005791055969894,1e-04,0.41999998688697815,2.9882798194885254,2.9882798194885254
421,1.0,0.0002396086638327688,0.0002396086638327688,1e-04,0.4300000071525574,2.959324359893799,2.959324359893799
422,1.0,0.0002391963207628578,0.0002391963207628578,1e-04,0.4399999976158142,2.930774211883545,2.930774211883545
423,1.0,0.00023884001711849123,0.00023884001711849123,1e-04,0.4399999976158142,2.901716709136963,2.901716709136963
424,1.0,0.00023849325953051448,0.00023849325953051448,1e-04,0.4399999976158142,2.8728389739990234,2.8728389739990234
425,1.0,0.00023809046251699328,0.00023809046251699328,1e-04,0.4399999976158142,2.843895196914673,2.843895196914673
426,1.0,0.00023769841936882585,0.00023769841936882585,1e-04,0.44999998807907104,2.815230131149292,2.815230131149292
427,1.0,0.00023735400463920087,0.00023735400463920087,1e-04,0.4699999988079071,2.786522150039673,2.786522150039673
428,1.0,0.00023699294251855463,0.00023699294251855463,1e-04,0.4699999988079071,2.757983446121216,2.757983446121216
429,1.0,0.00023664733453188092,0.00023664733453188092,1e-04,0.4699999988079071,2.7283377647399902,2.7283377647399902
430,1.0,0.00023625291942153126,0.00023625291942153126,1e-04,0.47999998927116394,2.700976848602295,2.700976848602295
431,1.0,0.0002359406789764762,0.0002359406789764762,1e-04,0.47999998927116394,2.671438694000244,2.671438694000244
432,1.0,0.00023557007079944015,0.00023557007079944015,1e-04,0.47999998927116394,2.643974542617798,2.643974542617798
433,1.0,0.0002352101873839274,0.0002352101873839274,1e-04,0.47999998927116394,2.615872383117676,2.615872383117676
434,1.0,0.00023483840050175786,0.00023483840050175786,1e-04,0.47999998927116394,2.588167190551758,2.588167190551758
435,1.0,0.00023451546439900994,0.00023451546439900994,1e-04,0.49000000953674316,2.560910940170288,2.560910940170288
436,1.0,0.00023412937298417091,0.00023412937298417091,1e-04,0.5099999904632568,2.5329673290252686,2.5329673290252686
437,1.0,0.00023375039745587856,0.00023375039745587856,1e-04,0.5299999713897705,2.5063271522521973,2.5063271522521973
438,1.0,0.00023336787126027048,0.00023336787126027048,1e-04,0.550000011920929,2.4796128273010254,2.4796128273010254
439,1.0,0.00023305088689085096,0.00023305088689085096,1e-04,0.5600000023841858,2.4519293308258057,2.4519293308258057
440,1.0,0.0002326850371900946,0.0002326850371900946,1e-04,0.5600000023841858,2.426443576812744,2.426443576812744
441,1.0,0.00023232513922266662,0.00023232513922266662,1e-04,0.5600000023841858,2.399044990539551,2.399044990539551
442,1.0,0.00023197477275971323,0.00023197477275971323,1e-04,0.5600000023841858,2.372993230819702,2.372993230819702
443,1.0,0.00023163277364801615,0.00023163277364801615,1e-04,0.5600000023841858,2.347177505493164,2.347177505493164
444,1.0,0.00023119898105505854,0.00023119898105505854,1e-04,0.5600000023841858,2.319821834564209,2.319821834564209
445,1.0,0.00023081645485945046,0.00023081645485945046,1e-04,0.5600000023841858,2.2940115928649902,2.2940115928649902
446,1.0,0.00023047803551889956,0.00023047803551889956,1e-04,0.5600000023841858,2.2679848670959473,2.2679848670959473
447,1.0,0.00023013839381746948,0.00023013839381746948,1e-04,0.5600000023841858,2.2414212226867676,2.2414212226867676
448,1.0,0.00022979160712566227,0.00022979160712566227,1e-04,0.5799999833106995,2.2154946327209473,2.2154946327209473
449,1.0,0.0002294662845088169,0.0002294662845088169,1e-04,0.5799999833106995,2.1894922256469727,2.1894922256469727
450,1.0,0.0002291409473400563,0.0002291409473400563,1e-04,0.5799999833106995,2.1626169681549072,2.1626169681549072
451,1.0,0.00022883109340909868,0.00022883109340909868,1e-04,0.5799999833106995,2.1369030475616455,2.1369030475616455
452,1.0,0.0002284497459186241,0.0002284497459186241,1e-04,0.6000000238418579,2.1107397079467773,2.1107397079467773
453,1.0,0.00022809820075053722,0.00022809820075053722,1e-04,0.6000000238418579,2.0856270790100098,2.0856270790100098
454,1.0,0.0002277502353535965,0.0002277502353535965,1e-04,0.6299999952316284,2.058762550354004,2.058762550354004
455,1.0,0.00022740582062397152,0.00022740582062397152,1e-04,0.6299999952316284,2.0350379943847656,2.0350379943847656
456,1.0,0.00022703879221808165,0.00022703879221808165,1e-04,0.6299999952316284,2.01049542427063,2.01049542427063
457,1.0,0.00022669677855446935,0.00022669677855446935,1e-04,0.6299999952316284,1.9863898754119873,1.9863898754119873
458,1.0,0.0002263893256895244,0.0002263893256895244,1e-04,0.6299999952316284,1.9615663290023804,1.9615663290023804
459,1.0,0.00022610095038544387,0.00022610095038544387,1e-04,0.6299999952316284,1.936590552330017,1.936590552330017
460,1.0,0.00022575058392249048,0.00022575058392249048,1e-04,0.6299999952316284,1.9119386672973633,1.9119386672973633
461,1.0,0.0002254240826005116,0.0002254240826005116,1e-04,0.6299999952316284,1.886802077293396,1.886802077293396
462,1.0,0.00022503797663375735,0.00022503797663375735,1e-04,0.6299999952316284,1.8619334697723389,1.8619334697723389
463,1.0,0.0002246959338663146,0.0002246959338663146,1e-04,0.6399999856948853,1.839227557182312,1.839227557182312
464,1.0,0.00022428002557717264,0.00022428002557717264,1e-04,0.6499999761581421,1.8148720264434814,1.8148720264434814
465,1.0,0.00022398805595003068,0.00022398805595003068,1e-04,0.6499999761581421,1.7919371128082275,1.7919371128082275
466,1.0,0.0002236996660940349,0.0002236996660940349,1e-04,0.6499999761581421,1.7675801515579224,1.7675801515579224
467,1.0,0.00022334094683174044,0.00022334094683174044,1e-04,0.6499999761581421,1.743260383605957,1.743260383605957
468,1.0,0.00022302157594822347,0.00022302157594822347,1e-04,0.6499999761581421,1.7194738388061523,1.7194738388061523
469,1.0,0.00022262832499109209,0.00022262832499109209,1e-04,0.6600000262260437,1.6958311796188354,1.6958311796188354
470,1.0,0.00022227439330890775,0.00022227439330890775,1e-04,0.6600000262260437,1.6719202995300293,1.6719202995300293
471,1.0,0.00022188112779986113,0.00022188112779986113,1e-04,0.6600000262260437,1.6485668420791626,1.6485668420791626
472,1.0,0.00022153077588882297,0.00022153077588882297,1e-04,0.6600000262260437,1.6259565353393555,1.6259565353393555
473,1.0,0.00022123046801425517,0.00022123046801425517,1e-04,0.6600000262260437,1.6040195226669312,1.6040195226669312
474,1.0,0.00022093371080700308,0.00022093371080700308,1e-04,0.6600000262260437,1.581681489944458,1.581681489944458
475,1.0,0.00022054763394407928,0.00022054763394407928,1e-04,0.6600000262260437,1.5591322183609009,1.5591322183609009
476,1.0,0.00022020797769073397,0.00022020797769073397,1e-04,0.6600000262260437,1.5375909805297852,1.5375909805297852
477,1.0,0.00021988741355016828,0.00021988741355016828,1e-04,0.6800000071525574,1.5163744688034058,1.5163744688034058
478,1.0,0.00021957280114293098,0.00021957280114293098,1e-04,0.6800000071525574,1.4952874183654785,1.4952874183654785
479,1.0,0.0002192224346799776,0.0002192224346799776,1e-04,0.6800000071525574,1.4749348163604736,1.4749348163604736
480,1.0,0.00021889708295930177,0.00021889708295930177,1e-04,0.6800000071525574,1.4544291496276855,1.4544291496276855
481,1.0,0.0002185598132200539,0.0002185598132200539,1e-04,0.6800000071525574,1.4340083599090576,1.4340083599090576
482,1.0,0.00021823331189807504,0.00021823331189807504,1e-04,0.6800000071525574,1.4134777784347534,1.4134777784347534
483,1.0,0.00021790678147226572,0.00021790678147226572,1e-04,0.6899999976158142,1.3929460048675537,1.3929460048675537
484,1.0,0.0002175862027797848,0.0002175862027797848,1e-04,0.699999988079071,1.371732473373413,1.371732473373413
485,1.0,0.00021726444538217038,0.00021726444538217038,1e-04,0.699999988079071,1.3517541885375977,1.3517541885375977
486,1.0,0.00021693315648008138,0.00021693315648008138,1e-04,0.699999988079071,1.3312512636184692,1.3312512636184692
487,1.0,0.0002166471240343526,0.0002166471240343526,1e-04,0.7099999785423279,1.31211256980896,1.31211256980896
488,1.0,0.00021633849246427417,0.00021633849246427417,1e-04,0.7099999785423279,1.2925931215286255,1.2925931215286255
489,1.0,0.00021599646424874663,0.00021599646424874663,1e-04,0.7200000286102295,1.2736703157424927,1.2736703157424927
490,1.0,0.00021569854288827628,0.00021569854288827628,1e-04,0.7300000190734863,1.2544362545013428,1.2544362545013428
491,1.0,0.00021540894522331655,0.00021540894522331655,1e-04,0.7300000190734863,1.2361013889312744,1.2361013889312744
492,1.0,0.00021511696104425937,0.00021511696104425937,1e-04,0.7300000190734863,1.2184377908706665,1.2184377908706665
493,1.0,0.0002148440689779818,0.0002148440689779818,1e-04,0.7400000095367432,1.1998456716537476,1.1998456716537476
494,1.0,0.00021450321946758777,0.00021450321946758777,1e-04,0.7599999904632568,1.1817803382873535,1.1817803382873535
495,1.0,0.0002141933946404606,0.0002141933946404606,1e-04,0.7599999904632568,1.1650402545928955,1.1650402545928955
496,1.0,0.0002138477866537869,0.0002138477866537869,1e-04,0.7599999904632568,1.1481826305389404,1.1481826305389404
497,1.0,0.00021350935276132077,0.00021350935276132077,1e-04,0.7599999904632568,1.1311771869659424,1.1311771869659424
498,1.0,0.00021321976964827627,0.00021321976964827627,1e-04,0.7599999904632568,1.1137744188308716,1.1137744188308716
499,1.0,0.00021291227312758565,0.00021291227312758565,1e-04,0.7599999904632568,1.0974708795547485,1.0974708795547485
500,1.0,0.0002125905448338017,0.0002125905448338017,1e-04,0.7699999809265137,1.0811090469360352,1.0811090469360352
501,1.0,0.0002122568548657,0.0002122568548657,1e-04,0.7699999809265137,1.0655337572097778,1.0655337572097778
502,1.0,0.0002118993434123695,0.0002118993434123695,1e-04,0.7699999809265137,1.0506726503372192,1.0506726503372192
503,1.0,0.00021158710296731442,0.00021158710296731442,1e-04,0.7799999713897705,1.0351357460021973,1.0351357460021973
504,1.0,0.0002112820220645517,0.0002112820220645517,1e-04,0.7799999713897705,1.020565390586853,1.020565390586853
505,1.0,0.00021093999384902418,0.00021093999384902418,1e-04,0.7799999713897705,1.0056663751602173,1.0056663751602173
506,1.0,0.00021064562315586954,0.00021064562315586954,1e-04,0.7799999713897705,0.9918820261955261,0.9918820261955261
507,1.0,0.00021029643539804965,0.00021029643539804965,1e-04,0.7900000214576721,0.977642834186554,0.977642834186554
508,1.0,0.00020997945102863014,0.00020997945102863014,1e-04,0.7900000214576721,0.9639789462089539,0.9639789462089539
509,1.0,0.00020963385759387165,0.00020963385759387165,1e-04,0.800000011920929,0.951302170753479,0.951302170753479
510,1.0,0.00020931207109242678,0.00020931207109242678,1e-04,0.800000011920929,0.9382634162902832,0.9382634162902832
511,1.0,0.00020900102390442044,0.00020900102390442044,1e-04,0.800000011920929,0.9257658123970032,0.9257658123970032
512,1.0,0.00020874956680927426,0.00020874956680927426,1e-04,0.800000011920929,0.9140194058418274,0.9140194058418274
513,1.0,0.00020846114784944803,0.00020846114784944803,1e-04,0.8100000023841858,0.9019655585289001,0.9019655585289001
514,1.0,0.00020809052512049675,0.00020809052512049675,1e-04,0.8100000023841858,0.8903319835662842,0.8903319835662842
515,1.0,0.0002078283578157425,0.0002078283578157425,1e-04,0.8100000023841858,0.8789275288581848,0.8789275288581848
516,1.0,0.000207566175959073,0.000207566175959073,1e-04,0.8299999833106995,0.8677425384521484,0.8677425384521484
517,1.0,0.00020725395006593317,0.00020725395006593317,1e-04,0.8399999737739563,0.8564525842666626,0.8564525842666626
518,1.0,0.00020695004786830395,0.00020695004786830395,1e-04,0.8399999737739563,0.8454808592796326,0.8454808592796326
519,1.0,0.00020664856128860265,0.00020664856128860265,1e-04,0.8399999737739563,0.8348647952079773,0.8348647952079773
520,1.0,0.00020629937353078276,0.00020629937353078276,1e-04,0.8399999737739563,0.8246046304702759,0.8246046304702759
521,1.0,0.00020603362645488232,0.00020603362645488232,1e-04,0.8399999737739563,0.8150449991226196,0.8150449991226196
522,1.0,0.00020571779168676585,0.00020571779168676585,1e-04,0.8399999737739563,0.8059122562408447,0.8059122562408447
523,1.0,0.000205418691621162,0.000205418691621162,1e-04,0.8399999737739563,0.7959867119789124,0.7959867119789124
524,1.0,0.0002051612682407722,0.0002051612682407722,1e-04,0.8399999737739563,0.7868636846542358,0.7868636846542358
525,1.0,0.00020485139975789934,0.00020485139975789934,1e-04,0.8399999737739563,0.7778999209403992,0.7778999209403992
526,1.0,0.00020454038167372346,0.00020454038167372346,1e-04,0.8500000238418579,0.7688246965408325,0.7688246965408325
527,1.0,0.00020424483227543533,0.00020424483227543533,1e-04,0.8500000238418579,0.7603473663330078,0.7603473663330078
528,1.0,0.00020395642786752433,0.00020395642786752433,1e-04,0.8500000238418579,0.7519089579582214,0.7519089579582214
529,1.0,0.00020362751092761755,0.00020362751092761755,1e-04,0.8500000238418579,0.7435694932937622,0.7435694932937622
530,1.0,0.00020330217375885695,0.00020330217375885695,1e-04,0.8500000238418579,0.7352859973907471,0.7352859973907471
531,1.0,0.000203012561541982,0.000203012561541982,1e-04,0.8399999737739563,0.7273199558258057,0.7273199558258057
532,1.0,0.00020269316155463457,0.00020269316155463457,1e-04,0.8399999737739563,0.7198330163955688,0.7198330163955688
533,1.0,0.00020243338076397777,0.00020243338076397777,1e-04,0.8399999737739563,0.7126031517982483,0.7126031517982483
534,1.0,0.00020213065727148205,0.00020213065727148205,1e-04,0.8399999737739563,0.7053890228271484,0.7053890228271484
535,1.0,0.00020184939785394818,0.00020184939785394818,1e-04,0.8399999737739563,0.6980485320091248,0.6980485320091248
536,1.0,0.00020152881916146725,0.00020152881916146725,1e-04,0.8500000238418579,0.6910321116447449,0.6910321116447449
537,1.0,0.0002012213517446071,0.0002012213517446071,1e-04,0.8500000238418579,0.6840284466743469,0.6840284466743469
538,1.0,0.0002009126910706982,0.0002009126910706982,1e-04,0.8500000238418579,0.6775009632110596,0.6775009632110596
539,1.0,0.00020063976990059018,0.00020063976990059018,1e-04,0.8500000238418579,0.67084139585495,0.67084139585495
540,1.0,0.0002003668632823974,0.0002003668632823974,1e-04,0.8500000238418579,0.664691150188446,0.664691150188446
541,1.0,0.00020012137247249484,0.00020012137247249484,1e-04,0.8500000238418579,0.6585118770599365,0.6585118770599365
542,1.0,0.00019981511286459863,0.00019981511286459863,1e-04,0.8500000238418579,0.6526752710342407,0.6526752710342407
543,1.0,0.00019949927809648216,0.00019949927809648216,1e-04,0.8500000238418579,0.6470693349838257,0.6470693349838257
544,1.0,0.0001992037141462788,0.0001992037141462788,1e-04,0.8500000238418579,0.6416609287261963,0.6416609287261963
545,1.0,0.0001989093580050394,0.0001989093580050394,1e-04,0.8399999737739563,0.6363454461097717,0.6363454461097717
546,1.0,0.00019857568258885294,0.00019857568258885294,1e-04,0.8399999737739563,0.6310128569602966,0.6310128569602966
547,1.0,0.00019829800294246525,0.00019829800294246525,1e-04,0.8500000238418579,0.6257054805755615,0.6257054805755615
548,1.0,0.00019799888832494617,0.00019799888832494617,1e-04,0.8500000238418579,0.6207966804504395,0.6207966804504395
549,1.0,0.00019775336841121316,0.00019775336841121316,1e-04,0.8600000143051147,0.6158324480056763,0.6158324480056763
550,1.0,0.00019746733596548438,0.00019746733596548438,1e-04,0.8600000143051147,0.6109573245048523,0.6109573245048523
551,1.0,0.0001971944293472916,0.0001971944293472916,1e-04,0.8600000143051147,0.6061091423034668,0.6061091423034668
552,1.0,0.00019687146414071321,0.00019687146414071321,1e-04,0.8600000143051147,0.6014928221702576,0.6014928221702576
553,1.0,0.00019653895287774503,0.00019653895287774503,1e-04,0.8600000143051147,0.5970945954322815,0.5970945954322815
554,1.0,0.00019628509471658617,0.00019628509471658617,1e-04,0.8600000143051147,0.5926808714866638,0.5926808714866638
555,1.0,0.00019594425975810736,0.00019594425975810736,1e-04,0.8600000143051147,0.5886009931564331,0.5886009931564331
556,1.0,0.00019570233416743577,0.00019570233416743577,1e-04,0.8600000143051147,0.584729015827179,0.584729015827179
557,1.0,0.00019546518160495907,0.00019546518160495907,1e-04,0.8600000143051147,0.5809676051139832,0.5809676051139832
558,1.0,0.00019519345369189978,0.00019519345369189978,1e-04,0.8600000143051147,0.5773122310638428,0.5773122310638428
559,1.0,0.00019489075930323452,0.00019489075930323452,1e-04,0.8600000143051147,0.5736267566680908,0.5736267566680908
560,1.0,0.0001945701806107536,0.0001945701806107536,1e-04,0.8600000143051147,0.5699256658554077,0.5699256658554077
561,1.0,0.00019430441898293793,0.00019430441898293793,1e-04,0.8600000143051147,0.5663421750068665,0.5663421750068665
562,1.0,0.00019401838653720915,0.00019401838653720915,1e-04,0.8600000143051147,0.562874436378479,0.562874436378479
563,1.0,0.00019372403039596975,0.00019372403039596975,1e-04,0.8600000143051147,0.5598421692848206,0.5598421692848206
564,1.0,0.0001934654137585312,0.0001934654137585312,1e-04,0.8500000238418579,0.556211531162262,0.556211531162262
565,1.0,0.00019318416889291257,0.00019318416889291257,1e-04,0.8500000238418579,0.5532287955284119,0.5532287955284119
566,1.0,0.0001929243589984253,0.0001929243589984253,1e-04,0.8500000238418579,0.5498044490814209,0.5498044490814209
567,1.0,0.00019263237481936812,0.00019263237481936812,1e-04,0.8500000238418579,0.5469308495521545,0.5469308495521545
568,1.0,0.00019235110084991902,0.00019235110084991902,1e-04,0.8500000238418579,0.5441956520080566,0.5441956520080566
569,1.0,0.00019206508295610547,0.00019206508295610547,1e-04,0.8500000238418579,0.5413945317268372,0.5413945317268372
570,1.0,0.00019178027287125587,0.00019178027287125587,1e-04,0.8500000238418579,0.538503885269165,0.538503885269165
571,1.0,0.00019154429901391268,0.00019154429901391268,1e-04,0.8500000238418579,0.5359049439430237,0.5359049439430237
572,1.0,0.0001912391890073195,0.0001912391890073195,1e-04,0.8500000238418579,0.533104658126831,0.533104658126831
573,1.0,0.00019096984760835767,0.00019096984760835767,1e-04,0.8500000238418579,0.5304465889930725,0.5304465889930725
574,1.0,0.00019068502297159284,0.00019068502297159284,1e-04,0.8600000143051147,0.5277925133705139,0.5277925133705139
575,1.0,0.00019040139159187675,0.00019040139159187675,1e-04,0.8600000143051147,0.525209903717041,0.525209903717041
576,1.0,0.00019012131087947637,0.00019012131087947637,1e-04,0.8600000143051147,0.52252596616745,0.52252596616745
577,1.0,0.00018984245252795517,0.00018984245252795517,1e-04,0.8600000143051147,0.5199326276779175,0.5199326276779175
578,1.0,0.0001895456953207031,0.0001895456953207031,1e-04,0.8600000143051147,0.5174927711486816,0.5174927711486816
579,1.0,0.0001892954169306904,0.0001892954169306904,1e-04,0.8600000143051147,0.5150122046470642,0.5150122046470642
580,1.0,0.00018903202726505697,0.00018903202726505697,1e-04,0.8600000143051147,0.5125926733016968,0.5125926733016968
581,1.0,0.00018876866670325398,0.00018876866670325398,1e-04,0.8600000143051147,0.5104081034660339,0.5104081034660339
582,1.0,0.00018854340305551887,0.00018854340305551887,1e-04,0.8600000143051147,0.5080227255821228,0.5080227255821228
583,1.0,0.00018830625049304217,0.00018830625049304217,1e-04,0.8600000143051147,0.5056775212287903,0.5056775212287903
584,1.0,0.00018804524734150618,0.00018804524734150618,1e-04,0.8600000143051147,0.5034951567649841,0.5034951567649841
585,1.0,0.00018779972742777318,0.00018779972742777318,1e-04,0.8600000143051147,0.5016187429428101,0.5016187429428101
586,1.0,0.00018751490279100835,0.00018751490279100835,1e-04,0.8600000143051147,0.4996190667152405,0.4996190667152405
587,1.0,0.0001872741850093007,0.0001872741850093007,1e-04,0.8700000047683716,0.49745333194732666,0.49745333194732666
588,1.0,0.0001870202977443114,0.0001870202977443114,1e-04,0.8700000047683716,0.495581716299057,0.495581716299057
589,1.0,0.00018676290346775204,0.00018676290346775204,1e-04,0.8700000047683716,0.49347424507141113,0.49347424507141113
590,1.0,0.00018650665879249573,0.00018650665879249573,1e-04,0.8700000047683716,0.49161434173583984,0.49161434173583984
591,1.0,0.00018625400844030082,0.00018625400844030082,1e-04,0.8700000047683716,0.48947983980178833,0.48947983980178833
592,1.0,0.00018593105778563768,0.00018593105778563768,1e-04,0.8700000047683716,0.48781371116638184,0.48781371116638184
593,1.0,0.00018562475452199578,0.00018562475452199578,1e-04,0.8700000047683716,0.48593997955322266,0.48593997955322266
594,1.0,0.00018536733114160597,0.00018536733114160597,1e-04,0.8700000047683716,0.48417484760284424,0.48417484760284424
595,1.0,0.00018508131324779242,0.00018508131324779242,1e-04,0.8700000047683716,0.48260292410850525,0.48260292410850525
596,1.0,0.0001847904932219535,0.0001847904932219535,1e-04,0.8700000047683716,0.48103398084640503,0.48103398084640503
597,1.0,0.00018456170801073313,0.00018456170801073313,1e-04,0.8700000047683716,0.4795149564743042,0.4795149564743042
598,1.0,0.00018424945301376283,0.00018424945301376283,1e-04,0.8700000047683716,0.4779268503189087,0.4779268503189087
599,1.0,0.00018397890380583704,0.00018397890380583704,1e-04,0.8700000047683716,0.4764189124107361,0.4764189124107361
600,1.0,0.00018367856682743877,0.00018367856682743877,1e-04,0.8700000047683716,0.47499600052833557,0.47499600052833557
601,1.0,0.00018343307601753622,0.00018343307601753622,1e-04,0.8700000047683716,0.47357386350631714,0.47357386350631714
602,1.0,0.00018316254136152565,0.00018316254136152565,1e-04,0.8700000047683716,0.47245505452156067,0.47245505452156067
603,1.0,0.00018294324399903417,0.00018294324399903417,1e-04,0.8700000047683716,0.4712003767490387,0.4712003767490387
604,1.0,0.00018265483959112316,0.00018265483959112316,1e-04,0.8700000047683716,0.46993300318717957,0.46993300318717957
605,1.0,0.00018241647921968251,0.00018241647921968251,1e-04,0.8799999952316284,0.4689844250679016,0.4689844250679016
606,1.0,0.00018209828704129905,0.00018209828704129905,1e-04,0.8700000047683716,0.46793270111083984,0.46793270111083984
607,1.0,0.00018188016838394105,0.00018188016838394105,1e-04,0.8700000047683716,0.4668806195259094,0.4668806195259094
608,1.0,0.0001816108269849792,0.0001816108269849792,1e-04,0.8700000047683716,0.46598297357559204,0.46598297357559204
609,1.0,0.00018130693933926523,0.00018130693933926523,1e-04,0.8799999952316284,0.4652150869369507,0.4652150869369507
610,1.0,0.0001810340181691572,0.0001810340181691572,1e-04,0.8799999952316284,0.46424052119255066,0.46424052119255066
611,1.0,0.00018076348351314664,0.00018076348351314664,1e-04,0.8799999952316284,0.4633854627609253,0.4633854627609253
612,1.0,0.00018055013788398355,0.00018055013788398355,1e-04,0.8799999952316284,0.46284088492393494,0.46284088492393494
613,1.0,0.00018026768520940095,0.00018026768520940095,1e-04,0.8799999952316284,0.4622080624103546,0.4622080624103546
614,1.0,0.0001800531754270196,0.0001800531754270196,1e-04,0.8799999952316284,0.4614970088005066,0.4614970088005066
615,1.0,0.00017981359269469976,0.00017981359269469976,1e-04,0.8799999952316284,0.4610360860824585,0.4610360860824585
616,1.0,0.00017957048839889467,0.00017957048839889467,1e-04,0.8799999952316284,0.4604601562023163,0.4604601562023163
617,1.0,0.00017933094932232052,0.00017933094932232052,1e-04,0.8799999952316284,0.45990851521492004,0.45990851521492004
618,1.0,0.00017903896514326334,0.00017903896514326334,1e-04,0.8799999952316284,0.4594153165817261,0.4594153165817261
619,1.0,0.00017877915524877608,0.00017877915524877608,1e-04,0.8799999952316284,0.45881640911102295,0.45881640911102295
620,1.0,0.00017857059719972312,0.00017857059719972312,1e-04,0.8799999952316284,0.45849791169166565,0.45849791169166565
621,1.0,0.00017831912555266172,0.00017831912555266172,1e-04,0.8799999952316284,0.4583013653755188,0.4583013653755188
622,1.0,0.0001780581078492105,0.0001780581078492105,1e-04,0.8799999952316284,0.45789650082588196,0.45789650082588196
623,1.0,0.0001778102305252105,0.0001778102305252105,1e-04,0.8799999952316284,0.4576030969619751,0.4576030969619751
624,1.0,0.0001775349082890898,0.0001775349082890898,1e-04,0.8799999952316284,0.45745205879211426,0.45745205879211426
625,1.0,0.00017724053759593517,0.00017724053759593517,1e-04,0.8799999952316284,0.45721521973609924,0.45721521973609924
626,1.0,0.00017701290198601782,0.00017701290198601782,1e-04,0.8799999952316284,0.4569813013076782,0.4569813013076782
627,1.0,0.00017675549315754324,0.00017675549315754324,1e-04,0.8799999952316284,0.4568302035331726,0.4568302035331726
628,1.0,0.00017651234520599246,0.00017651234520599246,1e-04,0.8799999952316284,0.45674505829811096,0.45674505829811096
629,1.0,0.0001762477622833103,0.0001762477622833103,1e-04,0.8799999952316284,0.4565136432647705,0.4565136432647705
630,1.0,0.00017601180297788233,0.00017601180297788233,1e-04,0.8799999952316284,0.456454873085022,0.456454873085022
631,1.0,0.00017577820108272135,0.00017577820108272135,1e-04,0.8799999952316284,0.4564623534679413,0.4564623534679413
632,1.0,0.00017554224177729338,0.00017554224177729338,1e-04,0.8799999952316284,0.456502228975296,0.456502228975296
633,1.0,0.00017529552860651165,0.00017529552860651165,1e-04,0.8799999952316284,0.45642945170402527,0.45642945170402527
634,1.0,0.00017505837604403496,0.00017505837604403496,1e-04,0.8799999952316284,0.45617973804473877,0.45617973804473877
635,1.0,0.00017481285613030195,0.00017481285613030195,1e-04,0.8799999952316284,0.45630180835723877,0.45630180835723877
636,1.0,0.00017460668459534645,0.00017460668459534645,1e-04,0.8799999952316284,0.45652106404304504,0.45652106404304504
637,1.0,0.0001743575994623825,0.0001743575994623825,1e-04,0.8799999952316284,0.45637261867523193,0.45637261867523193
638,1.0,0.00017412519082427025,0.00017412519082427025,1e-04,0.8799999952316284,0.4563242197036743,0.4563242197036743
639,1.0,0.00017388326523359865,0.00017388326523359865,1e-04,0.8799999952316284,0.4563564658164978,0.4563564658164978
640,1.0,0.00017362464859616011,0.00017362464859616011,1e-04,0.8799999952316284,0.45648932456970215,0.45648932456970215
641,1.0,0.00017336364544462413,0.00017336364544462413,1e-04,0.8799999952316284,0.45656827092170715,0.45656827092170715
642,1.0,0.00017309428949374706,0.00017309428949374706,1e-04,0.8799999952316284,0.4566671848297119,0.4566671848297119
643,1.0,0.00017288215167354792,0.00017288215167354792,1e-04,0.8799999952316284,0.45674464106559753,0.45674464106559753
644,1.0,0.00017265928909182549,0.00017265928909182549,1e-04,0.8799999952316284,0.4567447304725647,0.4567447304725647
645,1.0,0.0001724340399960056,0.0001724340399960056,1e-04,0.8799999952316284,0.45687243342399597,0.45687243342399597
646,1.0,0.00017215039406437427,0.00017215039406437427,1e-04,0.8799999952316284,0.456810861825943,0.456810861825943
647,1.0,0.00017193943494930863,0.00017193943494930863,1e-04,0.8799999952316284,0.4571245610713959,0.4571245610713959
648,1.0,0.00017171776562463492,0.00017171776562463492,1e-04,0.8799999952316284,0.4571876525878906,0.4571876525878906
649,1.0,0.00017146866593975574,0.00017146866593975574,1e-04,0.8899999856948853,0.45740967988967896,0.45740967988967896
650,1.0,0.00017121243581641465,0.00017121243581641465,1e-04,0.9100000262260437,0.4575103521347046,0.4575103521347046
651,1.0,0.00017099076649174094,0.00017099076649174094,1e-04,0.9100000262260437,0.45765334367752075,0.45765334367752075
652,1.0,0.00017074881179723889,0.00017074881179723889,1e-04,0.9100000262260437,0.4576472043991089,0.4576472043991089
653,1.0,0.0001705342874629423,0.0001705342874629423,1e-04,0.9100000262260437,0.4579283893108368,0.4579283893108368
654,1.0,0.00017029592709150165,0.00017029592709150165,1e-04,0.9100000262260437,0.4580833911895752,0.4580833911895752
655,1.0,0.00017003613174892962,0.00017003613174892962,1e-04,0.9100000262260437,0.45822280645370483,0.45822280645370483
656,1.0,0.00016981325461529195,0.00016981325461529195,1e-04,0.9100000262260437,0.4583662748336792,0.4583662748336792
657,1.0,0.00016959276399575174,0.00016959276399575174,1e-04,0.9100000262260437,0.4586125314235687,0.4586125314235687
658,1.0,0.00016936632164288312,0.00016936632164288312,1e-04,0.9100000262260437,0.4586741626262665,0.4586741626262665
659,1.0,0.00016907435201574117,0.00016907435201574117,1e-04,0.9100000262260437,0.4589631259441376,0.4589631259441376
660,1.0,0.00016884789511095732,0.00016884789511095732,1e-04,0.9100000262260437,0.459191232919693,0.459191232919693
661,1.0,0.00016861311451066285,0.00016861311451066285,1e-04,0.9100000262260437,0.45943427085876465,0.45943427085876465
662,1.0,0.00016832229448482394,0.00016832229448482394,1e-04,0.9100000262260437,0.4598144590854645,0.4598144590854645
663,1.0,0.0001680684508755803,0.0001680684508755803,1e-04,0.9100000262260437,0.46001216769218445,0.46001216769218445
664,1.0,0.00016784081526566297,0.00016784081526566297,1e-04,0.9100000262260437,0.4602603614330292,0.4602603614330292
665,1.0,0.0001676167594268918,0.0001676167594268918,1e-04,0.9100000262260437,0.4604203701019287,0.4604203701019287
666,1.0,0.00016736407997086644,0.00016736407997086644,1e-04,0.9100000262260437,0.46074026823043823,0.46074026823043823
667,1.0,0.00016706733731552958,0.00016706733731552958,1e-04,0.9100000262260437,0.4609600901603699,0.4609600901603699
668,1.0,0.00016683850844856352,0.00016683850844856352,1e-04,0.9100000262260437,0.46134722232818604,0.46134722232818604
669,1.0,0.00016657508967909962,0.00016657508967909962,1e-04,0.9100000262260437,0.4615132212638855,0.4615132212638855
670,1.0,0.00016638085071463138,0.00016638085071463138,1e-04,0.9100000262260437,0.46177372336387634,0.46177372336387634
671,1.0,0.00016612937906756997,0.00016612937906756997,1e-04,0.9100000262260437,0.46191367506980896,0.46191367506980896
672,1.0,0.0001659112749621272,0.0001659112749621272,1e-04,0.9100000262260437,0.46230754256248474,0.46230754256248474
673,1.0,0.00016565265832468867,0.00016565265832468867,1e-04,0.9100000262260437,0.4623042643070221,0.4623042643070221
674,1.0,0.00016542621597182006,0.00016542621597182006,1e-04,0.9100000262260437,0.46266064047813416,0.46266064047813416
675,1.0,0.0001652009377721697,0.0001652009377721697,1e-04,0.9100000262260437,0.4629354476928711,0.4629354476928711
676,1.0,0.00016499951016157866,0.00016499951016157866,1e-04,0.9100000262260437,0.4633558690547943,0.4633558690547943
677,1.0,0.00016473018331453204,0.00016473018331453204,1e-04,0.9100000262260437,0.46354320645332336,0.46354320645332336
678,1.0,0.0001645204029045999,0.0001645204029045999,1e-04,0.9100000262260437,0.4637833535671234,0.4637833535671234
679,1.0,0.0001643046853132546,0.0001643046853132546,1e-04,0.9100000262260437,0.4641824960708618,0.4641824960708618
680,1.0,0.0001640937407501042,0.0001640937407501042,1e-04,0.9100000262260437,0.4645009934902191,0.4645009934902191
681,1.0,0.00016386492643505335,0.00016386492643505335,1e-04,0.9100000262260437,0.4647945761680603,0.4647945761680603
682,1.0,0.0001636265660636127,0.0001636265660636127,1e-04,0.9100000262260437,0.4649839699268341,0.4649839699268341
683,1.0,0.00016337985289283097,0.00016337985289283097,1e-04,0.9100000262260437,0.4651641845703125,0.4651641845703125
684,1.0,0.00016316771507263184,0.00016316771507263184,1e-04,0.9100000262260437,0.465560644865036,0.465560644865036
685,1.0,0.000162966302013956,0.000162966302013956,1e-04,0.9100000262260437,0.4659852981567383,0.4659852981567383
686,1.0,0.00016276964743155986,0.00016276964743155986,1e-04,0.9100000262260437,0.46619412302970886,0.46619412302970886
687,1.0,0.00016256107483059168,0.00016256107483059168,1e-04,0.9100000262260437,0.46650493144989014,0.46650493144989014
688,1.0,0.00016229768516495824,0.00016229768516495824,1e-04,0.9100000262260437,0.4668523073196411,0.4668523073196411
689,1.0,0.00016210461035370827,0.00016210461035370827,1e-04,0.9100000262260437,0.4669889807701111,0.4669889807701111
690,1.0,0.000161887684953399,0.000161887684953399,1e-04,0.9100000262260437,0.46761953830718994,0.46761953830718994
691,1.0,0.00016167435387615114,0.00016167435387615114,1e-04,0.9100000262260437,0.4680272936820984,0.4680272936820984
692,1.0,0.00016139786748681217,0.00016139786748681217,1e-04,0.9100000262260437,0.46836742758750916,0.46836742758750916
693,1.0,0.00016120476357173175,0.00016120476357173175,1e-04,0.9100000262260437,0.4686272442340851,0.4686272442340851
694,1.0,0.00016099741333164275,0.00016099741333164275,1e-04,0.9100000262260437,0.4688374698162079,0.4688374698162079
695,1.0,0.00016077811596915126,0.00016077811596915126,1e-04,0.9100000262260437,0.4692569077014923,0.4692569077014923
696,1.0,0.00016055164451245219,0.00016055164451245219,1e-04,0.9100000262260437,0.46955248713493347,0.46955248713493347
697,1.0,0.00016031805716920644,0.00016031805716920644,1e-04,0.9100000262260437,0.4699341058731079,0.4699341058731079
698,1.0,0.00016008922830224037,0.00016008922830224037,1e-04,0.9100000262260437,0.4701567590236664,0.4701567590236664
699,1.0,0.00015989852545317262,0.00015989852545317262,1e-04,0.9100000262260437,0.4705408811569214,0.4705408811569214
700,1.0,0.00015971259563229978,0.00015971259563229978,1e-04,0.9100000262260437,0.47074374556541443,0.47074374556541443
701,1.0,0.00015948020154610276,0.00015948020154610276,1e-04,0.9100000262260437,0.4712045192718506,0.4712045192718506
702,1.0,0.00015927640197332948,0.00015927640197332948,1e-04,0.9100000262260437,0.471394419670105,0.471394419670105
703,1.0,0.00015904162137303501,0.00015904162137303501,1e-04,0.9100000262260437,0.4719322919845581,0.4719322919845581
704,1.0,0.00015880919818300754,0.00015880919818300754,1e-04,0.9100000262260437,0.47214004397392273,0.47214004397392273
705,1.0,0.00015861494466662407,0.00015861494466662407,1e-04,0.9100000262260437,0.4726155400276184,0.4726155400276184
706,1.0,0.00015839921252336353,0.00015839921252336353,1e-04,0.9100000262260437,0.4729832410812378,0.4729832410812378
707,1.0,0.00015816562518011779,0.00015816562518011779,1e-04,0.9100000262260437,0.4733021855354309,0.4733021855354309
708,1.0,0.00015794513456057757,0.00015794513456057757,1e-04,0.9100000262260437,0.4736649990081787,0.4736649990081787
709,1.0,0.00015772940241731703,0.00015772940241731703,1e-04,0.9100000262260437,0.4741441011428833,0.4741441011428833
710,1.0,0.00015750057355035096,0.00015750057355035096,1e-04,0.9100000262260437,0.47447460889816284,0.47447460889816284
711,1.0,0.00015731467283330858,0.00015731467283330858,1e-04,0.9100000262260437,0.47476083040237427,0.47476083040237427
712,1.0,0.00015708821592852473,0.00015708821592852473,1e-04,0.9100000262260437,0.4750988483428955,0.4750988483428955
713,1.0,0.00015687488485127687,0.00015687488485127687,1e-04,0.9100000262260437,0.4754560887813568,0.4754560887813568
714,1.0,0.00015668178093619645,0.00015668178093619645,1e-04,0.9100000262260437,0.4754195511341095,0.4754195511341095
715,1.0,0.0001564648700878024,0.0001564648700878024,1e-04,0.9100000262260437,0.47590041160583496,0.47590041160583496
716,1.0,0.00015627894026692957,0.00015627894026692957,1e-04,0.9100000262260437,0.47610655426979065,0.47610655426979065
717,1.0,0.0001560608361614868,0.0001560608361614868,1e-04,0.9100000262260437,0.4763968288898468,0.4763968288898468
718,1.0,0.00015582724881824106,0.00015582724881824106,1e-04,0.9100000262260437,0.4768090546131134,0.4768090546131134
719,1.0,0.00015560675819870085,0.00015560675819870085,1e-04,0.9100000262260437,0.47715526819229126,0.47715526819229126
720,1.0,0.0001553576730657369,0.0001553576730657369,1e-04,0.9100000262260437,0.47748374938964844,0.47748374938964844
721,1.0,0.0001551610039314255,0.0001551610039314255,1e-04,0.9100000262260437,0.47788742184638977,0.47788742184638977
722,1.0,0.000154970315634273,0.000154970315634273,1e-04,0.9100000262260437,0.4781562387943268,0.4781562387943268
723,1.0,0.00015476770931854844,0.00015476770931854844,1e-04,0.9100000262260437,0.47870445251464844,0.47870445251464844
724,1.0,0.00015453291416633874,0.00015453291416633874,1e-04,0.9100000262260437,0.4793131351470947,0.4793131351470947
725,1.0,0.00015429692575708032,0.00015429692575708032,1e-04,0.9100000262260437,0.47941580414772034,0.47941580414772034
726,1.0,0.00015407406317535788,0.00015407406317535788,1e-04,0.9100000262260437,0.479928582906723,0.479928582906723
727,1.0,0.00015385595906991512,0.00015385595906991512,1e-04,0.9100000262260437,0.4803023636341095,0.4803023636341095
728,1.0,0.00015365333820227534,0.00015365333820227534,1e-04,0.9100000262260437,0.48064011335372925,0.48064011335372925
729,1.0,0.00015342450933530927,0.00015342450933530927,1e-04,0.9100000262260437,0.4810173809528351,0.4810173809528351
730,1.0,0.00015322785475291312,0.00015322785475291312,1e-04,0.9100000262260437,0.48136329650878906,0.48136329650878906
731,1.0,0.00015304073167499155,0.00015304073167499155,1e-04,0.9100000262260437,0.4816988706588745,0.4816988706588745
732,1.0,0.00015278806677088141,0.00015278806677088141,1e-04,0.9100000262260437,0.4819472134113312,0.4819472134113312
733,1.0,0.0001525842526461929,0.0001525842526461929,1e-04,0.9100000262260437,0.48218077421188354,0.48218077421188354
734,1.0,0.00015241980145219713,0.00015241980145219713,1e-04,0.9100000262260437,0.48248541355133057,0.48248541355133057
735,1.0,0.00015222076035570353,0.00015222076035570353,1e-04,0.9100000262260437,0.48283523321151733,0.48283523321151733
736,1.0,0.00015200622146949172,0.00015200622146949172,1e-04,0.9100000262260437,0.4831434488296509,0.4831434488296509
737,1.0,0.0001517940836492926,0.0001517940836492926,1e-04,0.9100000262260437,0.4833161532878876,0.4833161532878876
738,1.0,0.00015157835150603205,0.00015157835150603205,1e-04,0.9100000262260437,0.4834992587566376,0.4834992587566376
739,1.0,0.00015136145520955324,0.00015136145520955324,1e-04,0.9100000262260437,0.4839082360267639,0.4839082360267639
740,1.0,0.00015110877575352788,0.00015110877575352788,1e-04,0.9100000262260437,0.4841143488883972,0.4841143488883972
741,1.0,0.00015091926616150886,0.00015091926616150886,1e-04,0.9100000262260437,0.4845302104949951,0.4845302104949951
742,1.0,0.0001507178385509178,0.0001507178385509178,1e-04,0.9100000262260437,0.48498207330703735,0.48498207330703735
743,1.0,0.00015053668175823987,0.00015053668175823987,1e-04,0.9100000262260437,0.4853864312171936,0.4853864312171936
744,1.0,0.00015032931696623564,0.00015032931696623564,1e-04,0.9100000262260437,0.4857814311981201,0.4857814311981201
745,1.0,0.00015014219388831407,0.00015014219388831407,1e-04,0.9100000262260437,0.48602402210235596,0.48602402210235596
746,1.0,0.00014994315279182047,0.00014994315279182047,1e-04,0.9100000262260437,0.4864155948162079,0.4864155948162079
747,1.0,0.00014977510727476329,0.00014977510727476329,1e-04,0.8999999761581421,0.4868418574333191,0.4868418574333191
748,1.0,0.00014959988766349852,0.00014959988766349852,1e-04,0.8999999761581421,0.4871586561203003,0.4871586561203003
749,1.0,0.00014938418462406844,0.00014938418462406844,1e-04,0.8999999761581421,0.48745372891426086,0.48745372891426086
750,1.0,0.00014918156375642866,0.00014918156375642866,1e-04,0.8999999761581421,0.4878957271575928,0.4878957271575928
751,1.0,0.00014898611698299646,0.00014898611698299646,1e-04,0.8999999761581421,0.4884008765220642,0.4884008765220642
752,1.0,0.00014882400864735246,0.00014882400864735246,1e-04,0.8999999761581421,0.4885058104991913,0.4885058104991913
753,1.0,0.00014864641707390547,0.00014864641707390547,1e-04,0.8999999761581421,0.48884567618370056,0.48884567618370056
754,1.0,0.0001484366657678038,0.0001484366657678038,1e-04,0.8999999761581421,0.4890861511230469,0.4890861511230469
755,1.0,0.00014820783690083772,0.00014820783690083772,1e-04,0.8999999761581421,0.48935994505882263,0.48935994505882263
756,1.0,0.00014799686323385686,0.00014799686323385686,1e-04,0.8999999761581421,0.48960232734680176,0.48960232734680176
757,1.0,0.00014777638716623187,0.00014777638716623187,1e-04,0.8999999761581421,0.48996996879577637,0.48996996879577637
758,1.0,0.00014757733151782304,0.00014757733151782304,1e-04,0.8999999761581421,0.49010905623435974,0.49010905623435974
759,1.0,0.00014740452752448618,0.00014740452752448618,1e-04,0.8999999761581421,0.4905727803707123,0.4905727803707123
760,1.0,0.00014720905164722353,0.00014720905164722353,1e-04,0.8999999761581421,0.49088314175605774,0.49088314175605774
761,1.0,0.00014699094754178077,0.00014699094754178077,1e-04,0.8999999761581421,0.49126529693603516,0.49126529693603516
762,1.0,0.00014678951993118972,0.00014678951993118972,1e-04,0.8999999761581421,0.491576611995697,0.491576611995697
763,1.0,0.00014659049338661134,0.00014659049338661134,1e-04,0.8999999761581421,0.4916462302207947,0.4916462302207947
764,1.0,0.000146365215186961,0.000146365215186961,1e-04,0.8999999761581421,0.49203628301620483,0.49203628301620483
765,1.0,0.00014618407294619828,0.00014618407294619828,1e-04,0.8999999761581421,0.4924079477787018,0.4924079477787018
766,1.0,0.0001459921768400818,0.0001459921768400818,1e-04,0.8999999761581421,0.492639422416687,0.492639422416687
767,1.0,0.000145818165037781,0.000145818165037781,1e-04,0.8999999761581421,0.4930308163166046,0.4930308163166046
768,1.0,0.00014559528790414333,0.00014559528790414333,1e-04,0.8999999761581421,0.4931788742542267,0.4931788742542267
769,1.0,0.00014539624680764973,0.00014539624680764973,1e-04,0.8999999761581421,0.4935958981513977,0.4935958981513977
770,1.0,0.00014520794502459466,0.00014520794502459466,1e-04,0.8999999761581421,0.49375370144844055,0.49375370144844055
771,1.0,0.00014500055112875998,0.00014500055112875998,1e-04,0.8999999761581421,0.4938632845878601,0.4938632845878601
772,1.0,0.00014483013364952058,0.00014483013364952058,1e-04,0.8999999761581421,0.4941312372684479,0.4941312372684479
773,1.0,0.00014464181731455028,0.00014464181731455028,1e-04,0.8999999761581421,0.4945647120475769,0.4945647120475769
774,1.0,0.00014443085819948465,0.00014443085819948465,1e-04,0.8999999761581421,0.49484771490097046,0.49484771490097046
775,1.0,0.00014426042616833001,0.00014426042616833001,1e-04,0.8999999761581421,0.49513036012649536,0.49513036012649536
776,1.0,0.00014407806156668812,0.00014407806156668812,1e-04,0.8999999761581421,0.4955146014690399,0.4955146014690399
777,1.0,0.00014384208770934492,0.00014384208770934492,1e-04,0.8999999761581421,0.4956144392490387,0.4956144392490387
778,1.0,0.00014363828813657165,0.00014363828813657165,1e-04,0.8999999761581421,0.49598053097724915,0.49598053097724915
779,1.0,0.00014344995724968612,0.00014344995724968612,1e-04,0.8999999761581421,0.49621471762657166,0.49621471762657166
780,1.0,0.00014326880045700818,0.00014326880045700818,1e-04,0.8999999761581421,0.49671295285224915,0.49671295285224915
781,1.0,0.00014311385166365653,0.00014311385166365653,1e-04,0.8999999761581421,0.49701443314552307,0.49701443314552307
782,1.0,0.000142938646604307,0.000142938646604307,1e-04,0.8999999761581421,0.4973617494106293,0.4973617494106293
783,1.0,0.00014271220425143838,0.00014271220425143838,1e-04,0.8999999761581421,0.49747002124786377,0.49747002124786377
784,1.0,0.0001425084046786651,0.0001425084046786651,1e-04,0.8999999761581421,0.4979908764362335,0.4979908764362335
785,1.0,0.00014229030057322234,0.00014229030057322234,1e-04,0.8999999761581421,0.49811840057373047,0.49811840057373047
786,1.0,0.00014211388770490885,0.00014211388770490885,1e-04,0.8999999761581421,0.49846526980400085,0.49846526980400085
787,1.0,0.00014194584218785167,0.00014194584218785167,1e-04,0.8999999761581421,0.49875330924987793,0.49875330924987793
788,1.0,0.00014171461225487292,0.00014171461225487292,1e-04,0.8999999761581421,0.4987652897834778,0.4987652897834778
789,1.0,0.00014156324323266745,0.00014156324323266745,1e-04,0.8999999761581421,0.4993099570274353,0.4993099570274353
790,1.0,0.0001413522841176018,0.0001413522841176018,1e-04,0.8899999856948853,0.4996353089809418,0.4996353089809418
791,1.0,0.0001411973498761654,0.0001411973498761654,1e-04,0.8899999856948853,0.4999508559703827,0.4999508559703827
792,1.0,0.00014096494123805314,0.00014096494123805314,1e-04,0.8899999856948853,0.5001028776168823,0.5001028776168823
793,1.0,0.0001407396630384028,0.0001407396630384028,1e-04,0.8899999856948853,0.5004544258117676,0.5004544258117676
794,1.0,0.0001405751972924918,0.0001405751972924918,1e-04,0.8899999856948853,0.5008077025413513,0.5008077025413513
795,1.0,0.00014039523375686258,0.00014039523375686258,1e-04,0.8899999856948853,0.5012246966362,0.5012246966362
796,1.0,0.00014021644892636687,0.00014021644892636687,1e-04,0.8899999856948853,0.5011430978775024,0.5011430978775024
797,1.0,0.0001400352775817737,0.0001400352775817737,1e-04,0.8899999856948853,0.5015899538993835,0.5015899538993835
798,1.0,0.00013980644871480763,0.00013980644871480763,1e-04,0.8899999856948853,0.5019948482513428,0.5019948482513428
799,1.0,0.00013959786156192422,0.00013959786156192422,1e-04,0.8899999856948853,0.5022110939025879,0.5022110939025879
800,1.0,0.0001394214923493564,0.0001394214923493564,1e-04,0.8899999856948853,0.5025643706321716,0.5025643706321716
801,1.0,0.00013926294923294336,0.00013926294923294336,1e-04,0.8899999856948853,0.502973198890686,0.502973198890686
802,1.0,0.0001390746474498883,0.0001390746474498883,1e-04,0.8899999856948853,0.5031459331512451,0.5031459331512451
803,1.0,0.00013890898844692856,0.00013890898844692856,1e-04,0.8899999856948853,0.5033195614814758,0.5033195614814758
804,1.0,0.00013869204849470407,0.00013869204849470407,1e-04,0.8899999856948853,0.5036460161209106,0.5036460161209106
805,1.0,0.0001384942006552592,0.0001384942006552592,1e-04,0.8899999856948853,0.5041198134422302,0.5041198134422302
806,1.0,0.00013832734839525074,0.00013832734839525074,1e-04,0.8899999856948853,0.504356324672699,0.504356324672699
807,1.0,0.00013811758253723383,0.00013811758253723383,1e-04,0.8899999856948853,0.5046231746673584,0.5046231746673584
808,1.0,0.00013796263374388218,0.00013796263374388218,1e-04,0.8899999856948853,0.504982590675354,0.504982590675354
809,1.0,0.0001377886364934966,0.0001377886364934966,1e-04,0.8899999856948853,0.5052151083946228,0.5052151083946228
810,1.0,0.00013760030560661107,0.00013760030560661107,1e-04,0.8899999856948853,0.5054742693901062,0.5054742693901062
811,1.0,0.00013739292626269162,0.00013739292626269162,1e-04,0.8899999856948853,0.5057293176651001,0.5057293176651001
812,1.0,0.0001372308179270476,0.0001372308179270476,1e-04,0.8899999856948853,0.5060893297195435,0.5060893297195435
813,1.0,0.0001370556274196133,0.0001370556274196133,1e-04,0.8899999856948853,0.5064568519592285,0.5064568519592285
814,1.0,0.00013689472689293325,0.00013689472689293325,1e-04,0.8899999856948853,0.5063522458076477,0.5063522458076477
815,1.0,0.00013673024659510702,0.00013673024659510702,1e-04,0.8899999856948853,0.5064883828163147,0.5064883828163147
816,1.0,0.0001365621865261346,0.0001365621865261346,1e-04,0.8899999856948853,0.5067376494407654,0.5067376494407654
817,1.0,0.00013640726683661342,0.00013640726683661342,1e-04,0.8899999856948853,0.5067733526229858,0.5067733526229858
818,1.0,0.00013625707651954144,0.00013625707651954144,1e-04,0.8899999856948853,0.5069838166236877,0.5069838166236877
819,1.0,0.0001360461174044758,0.0001360461174044758,1e-04,0.8899999856948853,0.5071509480476379,0.5071509480476379
820,1.0,0.00013584826956503093,0.00013584826956503093,1e-04,0.8899999856948853,0.5075685977935791,0.5075685977935791
821,1.0,0.00013569332077167928,0.00013569332077167928,1e-04,0.8899999856948853,0.5076470971107483,0.5076470971107483
822,1.0,0.00013551930896937847,0.00013551930896937847,1e-04,0.8899999856948853,0.5081218481063843,0.5081218481063843
823,1.0,0.0001353321858914569,0.0001353321858914569,1e-04,0.8899999856948853,0.5079463124275208,0.5079463124275208
824,1.0,0.00013514267629943788,0.00013514267629943788,1e-04,0.8899999856948853,0.5084903240203857,0.5084903240203857
825,1.0,0.00013496627798303962,0.00013496627798303962,1e-04,0.8899999856948853,0.5086121559143066,0.5086121559143066
826,1.0,0.0001348053920082748,0.0001348053920082748,1e-04,0.8899999856948853,0.5090570449829102,0.5090570449829102
827,1.0,0.00013464089715853333,0.00013464089715853333,1e-04,0.8899999856948853,0.5093557238578796,0.5093557238578796
828,1.0,0.0001344764168607071,0.0001344764168607071,1e-04,0.8899999856948853,0.5095626711845398,0.5095626711845398
829,1.0,0.00013430956460069865,0.00013430956460069865,1e-04,0.8899999856948853,0.5097088813781738,0.5097088813781738
830,1.0,0.00013412242697086185,0.00013412242697086185,1e-04,0.8899999856948853,0.5098415613174438,0.5098415613174438
831,1.0,0.0001339555747108534,0.0001339555747108534,1e-04,0.8899999856948853,0.5101538300514221,0.5101538300514221
832,1.0,0.00013375296839512885,0.00013375296839512885,1e-04,0.8899999856948853,0.5102971196174622,0.5102971196174622
833,1.0,0.00013360635784920305,0.00013360635784920305,1e-04,0.8899999856948853,0.5106320977210999,0.5106320977210999
834,1.0,0.00013340612349566072,0.00013340612349566072,1e-04,0.8899999856948853,0.5109065771102905,0.5109065771102905
835,1.0,0.00013323925668373704,0.00013323925668373704,1e-04,0.8899999856948853,0.5110019445419312,0.5110019445419312
836,1.0,0.0001330366503680125,0.0001330366503680125,1e-04,0.8899999856948853,0.5113885998725891,0.5113885998725891
837,1.0,0.0001328661892330274,0.0001328661892330274,1e-04,0.8899999856948853,0.5116133689880371,0.5116133689880371
838,1.0,0.00013270173803903162,0.00013270173803903162,1e-04,0.8899999856948853,0.5121942162513733,0.5121942162513733
839,1.0,0.00013250029587652534,0.00013250029587652534,1e-04,0.8899999856948853,0.512406587600708,0.512406587600708
840,1.0,0.00013234058860689402,0.00013234058860689402,1e-04,0.8899999856948853,0.5126718282699585,0.5126718282699585
841,1.0,0.00013214391947258264,0.00013214391947258264,1e-04,0.8899999856948853,0.5129268765449524,0.5129268765449524
842,1.0,0.0001319472648901865,0.0001319472648901865,1e-04,0.8899999856948853,0.5133992433547974,0.5133992433547974
843,1.0,0.00013178278459236026,0.00013178278459236026,1e-04,0.8899999856948853,0.5135149955749512,0.5135149955749512
844,1.0,0.00013160877279005945,0.00013160877279005945,1e-04,0.8899999856948853,0.5139170289039612,0.5139170289039612
845,1.0,0.00013143476098775864,0.00013143476098775864,1e-04,0.8899999856948853,0.5141975283622742,0.5141975283622742
846,1.0,0.00013128934369888157,0.00013128934369888157,1e-04,0.8899999856948853,0.5139801502227783,0.5139801502227783
847,1.0,0.00013112487795297056,0.00013112487795297056,1e-04,0.8899999856948853,0.5143868327140808,0.5143868327140808
848,1.0,0.0001309437066083774,0.0001309437066083774,1e-04,0.8899999856948853,0.5144445896148682,0.5144445896148682
849,1.0,0.0001307506172452122,0.0001307506172452122,1e-04,0.8899999856948853,0.5145649909973145,0.5145649909973145
850,1.0,0.00013058018521405756,0.00013058018521405756,1e-04,0.8899999856948853,0.5149704217910767,0.5149704217910767
851,1.0,0.00013041807687841356,0.00013041807687841356,1e-04,0.8899999856948853,0.5152828693389893,0.5152828693389893
852,1.0,0.00013024169311393052,0.00013024169311393052,1e-04,0.8899999856948853,0.5152648687362671,0.5152648687362671
853,1.0,0.00013006171502638608,0.00013006171502638608,1e-04,0.8899999856948853,0.5156210064888,0.5156210064888
854,1.0,0.00012989963579457253,0.00012989963579457253,1e-04,0.8899999856948853,0.515789270401001,0.515789270401001
855,1.0,0.00012975062418263406,0.00012975062418263406,1e-04,0.8899999856948853,0.5161973237991333,0.5161973237991333
856,1.0,0.00012959448213223368,0.00012959448213223368,1e-04,0.8899999856948853,0.5163842439651489,0.5163842439651489
857,1.0,0.00012940379383508116,0.00012940379383508116,1e-04,0.8899999856948853,0.5166314840316772,0.5166314840316772
858,1.0,0.00012924408656544983,0.00012924408656544983,1e-04,0.8899999856948853,0.5166410207748413,0.5166410207748413
859,1.0,0.0001290807849727571,0.0001290807849727571,1e-04,0.8899999856948853,0.516654372215271,0.516654372215271
860,1.0,0.00012888055061921477,0.00012888055061921477,1e-04,0.8899999856948853,0.5170242190361023,0.5170242190361023
861,1.0,0.00012874824460595846,0.00012874824460595846,1e-04,0.8899999856948853,0.5171805620193481,0.5171805620193481
862,1.0,0.00012859450362157077,0.00012859450362157077,1e-04,0.8899999856948853,0.5175550580024719,0.5175550580024719
863,1.0,0.00012842049181926996,0.00012842049181926996,1e-04,0.8899999856948853,0.5179609656333923,0.5179609656333923
864,1.0,0.0001282655430259183,0.0001282655430259183,1e-04,0.8899999856948853,0.5179842114448547,0.5179842114448547
865,1.0,0.00012808555038645864,0.00012808555038645864,1e-04,0.8899999856948853,0.5182808041572571,0.5182808041572571
866,1.0,0.0001279306161450222,0.0001279306161450222,1e-04,0.8899999856948853,0.518496036529541,0.518496036529541
867,1.0,0.0001277399278478697,0.0001277399278478697,1e-04,0.8899999856948853,0.5187579393386841,0.5187579393386841
868,1.0,0.0001275825925404206,0.0001275825925404206,1e-04,0.8899999856948853,0.5189614295959473,0.5189614295959473
869,1.0,0.00012742765829898417,0.00012742765829898417,1e-04,0.8899999856948853,0.5192257165908813,0.5192257165908813
870,1.0,0.00012727748253382742,0.00012727748253382742,1e-04,0.8899999856948853,0.5193237662315369,0.5193237662315369
871,1.0,0.0001270939246751368,0.0001270939246751368,1e-04,0.8899999856948853,0.5196085572242737,0.5196085572242737
872,1.0,0.00012694016913883388,0.00012694016913883388,1e-04,0.8899999856948853,0.5198841094970703,0.5198841094970703
873,1.0,0.0001267566258320585,0.0001267566258320585,1e-04,0.8899999856948853,0.520211935043335,0.520211935043335
874,1.0,0.00012662552762776613,0.00012662552762776613,1e-04,0.8899999856948853,0.520187258720398,0.520187258720398
875,1.0,0.00012641455396078527,0.00012641455396078527,1e-04,0.8899999856948853,0.5203100442886353,0.5203100442886353
876,1.0,0.00012624649389181286,0.00012624649389181286,1e-04,0.8899999856948853,0.5205366611480713,0.5205366611480713
877,1.0,0.0001260903663933277,0.0001260903663933277,1e-04,0.8899999856948853,0.5207249522209167,0.5207249522209167
878,1.0,0.00012595686712302268,0.00012595686712302268,1e-04,0.8899999856948853,0.5206201672554016,0.5206201672554016
879,1.0,0.00012582099589053541,0.00012582099589053541,1e-04,0.8899999856948853,0.5209639072418213,0.5209639072418213
880,1.0,0.00012564458302222192,0.00012564458302222192,1e-04,0.8899999856948853,0.5209805369377136,0.5209805369377136
881,1.0,0.0001254944218089804,0.0001254944218089804,1e-04,0.8899999856948853,0.5212385654449463,0.5212385654449463
882,1.0,0.00012531800894066691,0.00012531800894066691,1e-04,0.8899999856948853,0.5214200615882874,0.5214200615882874
883,1.0,0.00012515591515693814,0.00012515591515693814,1e-04,0.8899999856948853,0.5215266346931458,0.5215266346931458
884,1.0,0.00012499382137320936,0.00012499382137320936,1e-04,0.8899999856948853,0.5216325521469116,0.5216325521469116
885,1.0,0.00012484483886510134,0.00012484483886510134,1e-04,0.8899999856948853,0.5217556357383728,0.5217556357383728
886,1.0,0.00012470418005250394,0.00012470418005250394,1e-04,0.8899999856948853,0.5217910408973694,0.5217910408973694
887,1.0,0.0001245373277924955,0.0001245373277924955,1e-04,0.8899999856948853,0.5221304297447205,0.5221304297447205
888,1.0,0.00012439191050361842,0.00012439191050361842,1e-04,0.8899999856948853,0.5222914218902588,0.5222914218902588
889,1.0,0.00012423578300513327,0.00012423578300513327,1e-04,0.8899999856948853,0.5226585268974304,0.5226585268974304
890,1.0,0.00012409155897330493,0.00012409155897330493,1e-04,0.8899999856948853,0.5224663019180298,0.5224663019180298
891,1.0,0.00012391396739985794,0.00012391396739985794,1e-04,0.8899999856948853,0.5224348902702332,0.5224348902702332
892,1.0,0.00012374232755973935,0.00012374232755973935,1e-04,0.8899999856948853,0.5224857330322266,0.5224857330322266
893,1.0,0.00012358262029010803,0.00012358262029010803,1e-04,0.8899999856948853,0.5226725935935974,0.5226725935935974
894,1.0,0.0001234705705428496,0.0001234705705428496,1e-04,0.8899999856948853,0.5228606462478638,0.5228606462478638
895,1.0,0.00012327631702646613,0.00012327631702646613,1e-04,0.8899999856948853,0.5229891538619995,0.5229891538619995
896,1.0,0.00012311898171901703,0.00012311898171901703,1e-04,0.8899999856948853,0.5231091976165771,0.5231091976165771
897,1.0,0.00012296998465899378,0.00012296998465899378,1e-04,0.8899999856948853,0.5234018564224243,0.5234018564224243
898,1.0,0.00012281147064641118,0.00012281147064641118,1e-04,0.8899999856948853,0.5233180522918701,0.5233180522918701
899,1.0,0.0001226636813953519,0.0001226636813953519,1e-04,0.8899999856948853,0.523408830165863,0.523408830165863
900,1.0,0.00012249800784047693,0.00012249800784047693,1e-04,0.8899999856948853,0.5238031148910522,0.5238031148910522
901,1.0,0.000122359735541977,0.000122359735541977,1e-04,0.8899999856948853,0.5237410068511963,0.5237410068511963
902,1.0,0.00012215474271215498,0.00012215474271215498,1e-04,0.8899999856948853,0.5238266587257385,0.5238266587257385
903,1.0,0.0001220188569277525,0.0001220188569277525,1e-04,0.8899999856948853,0.5241023898124695,0.5241023898124695
904,1.0,0.00012187344691483304,0.00012187344691483304,1e-04,0.8899999856948853,0.5242555737495422,0.5242555737495422
905,1.0,0.00012168631656095386,0.00012168631656095386,1e-04,0.8899999856948853,0.5244379639625549,0.5244379639625549
906,1.0,0.00012153256830060855,0.00012153256830060855,1e-04,0.8899999856948853,0.5244596600532532,0.5244596600532532
907,1.0,0.00012137403973611072,0.00012137403973611072,1e-04,0.8899999856948853,0.5247470140457153,0.5247470140457153
908,1.0,0.00012121552572352812,0.00012121552572352812,1e-04,0.8899999856948853,0.5244759321212769,0.5244759321212769
909,1.0,0.00012105461064493284,0.00012105461064493284,1e-04,0.8899999856948853,0.5246246457099915,0.5246246457099915
910,1.0,0.0001209008478326723,0.0001209008478326723,1e-04,0.8899999856948853,0.5247578620910645,0.5247578620910645
911,1.0,0.00012072444951627403,0.00012072444951627403,1e-04,0.8899999856948853,0.5248572826385498,0.5248572826385498
912,1.0,0.0001205742810270749,0.0001205742810270749,1e-04,0.8899999856948853,0.5251001119613647,0.5251001119613647
913,1.0,0.00012042409798596054,0.00012042409798596054,1e-04,0.8899999856948853,0.5253380537033081,0.5253380537033081
914,1.0,0.00012026676995446905,0.00012026676995446905,1e-04,0.8899999856948853,0.5252888202667236,0.5252888202667236
915,1.0,0.00012009990314254537,0.00012009990314254537,1e-04,0.8899999856948853,0.5256502032279968,0.5256502032279968
916,1.0,0.00011993303633062169,0.00011993303633062169,1e-04,0.8899999856948853,0.5257365703582764,0.5257365703582764
917,1.0,0.00011979477130807936,0.00011979477130807936,1e-04,0.8899999856948853,0.5257441997528076,0.5257441997528076
918,1.0,0.000119644588266965,0.000119644588266965,1e-04,0.8899999856948853,0.5256141424179077,0.5256141424179077
919,1.0,0.00011950514453928918,0.00011950514453928918,1e-04,0.8899999856948853,0.5257942080497742,0.5257942080497742
920,1.0,0.00011934661597479135,0.00011934661597479135,1e-04,0.8899999856948853,0.5260918736457825,0.5260918736457825
921,1.0,0.0001191857154481113,0.0001191857154481113,1e-04,0.8899999856948853,0.5261257290840149,0.5261257290840149
922,1.0,0.00011903316044481471,0.00011903316044481471,1e-04,0.8899999856948853,0.5263761878013611,0.5263761878013611
923,1.0,0.00011885794810950756,0.00011885794810950756,1e-04,0.8899999856948853,0.5265265107154846,0.5265265107154846
924,1.0,0.00011872564209625125,0.00011872564209625125,1e-04,0.8899999856948853,0.5266363024711609,0.5266363024711609
925,1.0,0.00011855639604618773,0.00011855639604618773,1e-04,0.8899999856948853,0.5269128680229187,0.5269128680229187
926,1.0,0.00011842528328998014,0.00011842528328998014,1e-04,0.8899999856948853,0.5271810293197632,0.5271810293197632
927,1.0,0.0001182715204777196,0.0001182715204777196,1e-04,0.8899999856948853,0.5273618102073669,0.5273618102073669
928,1.0,0.00011813564924523234,0.00011813564924523234,1e-04,0.8899999856948853,0.5275411605834961,0.5275411605834961
929,1.0,0.00011799501226050779,0.00011799501226050779,1e-04,0.8899999856948853,0.5275876522064209,0.5275876522064209
930,1.0,0.00011781861394410953,0.00011781861394410953,1e-04,0.8899999856948853,0.527619481086731,0.527619481086731
931,1.0,0.00011768035619752482,0.00011768035619752482,1e-04,0.8899999856948853,0.527724027633667,0.527724027633667
932,1.0,0.00011755042942240834,0.00011755042942240834,1e-04,0.8899999856948853,0.5279300808906555,0.5279300808906555
933,1.0,0.00011738237662939355,0.00011738237662939355,1e-04,0.8899999856948853,0.5281091928482056,0.5281091928482056
934,1.0,0.00011723100033123046,0.00011723100033123046,1e-04,0.8899999856948853,0.5279855728149414,0.5279855728149414
935,1.0,0.00011709631507983431,0.00011709631507983431,1e-04,0.8899999856948853,0.5280464291572571,0.5280464291572571
936,1.0,0.0001169580573332496,0.0001169580573332496,1e-04,0.8899999856948853,0.5282864570617676,0.5282864570617676
937,1.0,0.00011683291086228564,0.00011683291086228564,1e-04,0.8899999856948853,0.5286261439323425,0.5286261439323425
938,1.0,0.0001166731963166967,0.0001166731963166967,1e-04,0.8899999856948853,0.5286267995834351,0.5286267995834351
939,1.0,0.00011650155647657812,0.00011650155647657812,1e-04,0.8899999856948853,0.5288302898406982,0.5288302898406982
940,1.0,0.00011633945541689172,0.00011633945541689172,1e-04,0.8899999856948853,0.528975248336792,0.528975248336792
941,1.0,0.00011622384045040235,0.00011622384045040235,1e-04,0.8899999856948853,0.5289111733436584,0.5289111733436584
942,1.0,0.00011604981409618631,0.00011604981409618631,1e-04,0.8899999856948853,0.5289511680603027,0.5289511680603027
943,1.0,0.00011590798385441303,0.00011590798385441303,1e-04,0.8899999856948853,0.529356062412262,0.529356062412262
944,1.0,0.00011575661483220756,0.00011575661483220756,1e-04,0.8899999856948853,0.52960205078125,0.52960205078125
945,1.0,0.0001156004800577648,0.0001156004800577648,1e-04,0.8899999856948853,0.5296154618263245,0.5296154618263245
946,1.0,0.00011544910375960171,0.00011544910375960171,1e-04,0.8899999856948853,0.529803454875946,0.529803454875946
947,1.0,0.00011533944780239835,0.00011533944780239835,1e-04,0.8899999856948853,0.5297752618789673,0.5297752618789673
948,1.0,0.00011519761028466746,0.00011519761028466746,1e-04,0.8899999856948853,0.5298449397087097,0.5298449397087097
949,1.0,0.00011505815928103402,0.00011505815928103402,1e-04,0.8899999856948853,0.5296862125396729,0.5296862125396729
950,1.0,0.00011493181955302134,0.00011493181955302134,1e-04,0.8899999856948853,0.5298206210136414,0.5298206210136414
951,1.0,0.00011477925727376714,0.00011477925727376714,1e-04,0.8899999856948853,0.5299314260482788,0.5299314260482788
952,1.0,0.000114644572022371,0.000114644572022371,1e-04,0.8899999856948853,0.5300462245941162,0.5300462245941162
953,1.0,0.00011449676821939647,0.00011449676821939647,1e-04,0.8899999856948853,0.5301979184150696,0.5301979184150696
954,1.0,0.00011437758075771853,0.00011437758075771853,1e-04,0.8899999856948853,0.5303685069084167,0.5303685069084167
955,1.0,0.0001142393157351762,0.0001142393157351762,1e-04,0.8899999856948853,0.5308231711387634,0.5308231711387634
956,1.0,0.00011409509897930548,0.00011409509897930548,1e-04,0.8899999856948853,0.5307741165161133,0.5307741165161133
957,1.0,0.0001139592204708606,0.0001139592204708606,1e-04,0.8899999856948853,0.5309105515480042,0.5309105515480042
958,1.0,0.00011382334196241572,0.00011382334196241572,1e-04,0.8899999856948853,0.5308390259742737,0.5308390259742737
959,1.0,0.000113679125206545,0.000113679125206545,1e-04,0.8899999856948853,0.5310469269752502,0.5310469269752502
960,1.0,0.00011354442540323362,0.00011354442540323362,1e-04,0.8899999856948853,0.5314314365386963,0.5314314365386963
961,1.0,0.00011339782940922305,0.00011339782940922305,1e-04,0.8899999856948853,0.5315138101577759,0.5315138101577759
962,1.0,0.000113277455966454,0.000113277455966454,1e-04,0.8899999856948853,0.5315169095993042,0.5315169095993042
963,1.0,0.00011314990842947736,0.00011314990842947736,1e-04,0.8899999856948853,0.5317758917808533,0.5317758917808533
964,1.0,0.00011299734615022317,0.00011299734615022317,1e-04,0.8899999856948853,0.5318644642829895,0.5318644642829895
965,1.0,0.00011282570631010458,0.00011282570631010458,1e-04,0.8899999856948853,0.5317915081977844,0.5317915081977844
966,1.0,0.00011270413233432919,0.00011270413233432919,1e-04,0.8899999856948853,0.532050371170044,0.532050371170044
967,1.0,0.0001125468043028377,0.0001125468043028377,1e-04,0.8899999856948853,0.5319518446922302,0.5319518446922302
968,1.0,0.00011241569154663011,0.00011241569154663011,1e-04,0.8899999856948853,0.5323076248168945,0.5323076248168945
969,1.0,0.00011228576477151364,0.00011228576477151364,1e-04,0.8899999856948853,0.5325537919998169,0.5325537919998169
970,1.0,0.00011214632831979543,0.00011214632831979543,1e-04,0.8899999856948853,0.5326841473579407,0.5326841473579407
971,1.0,0.0001120283268392086,0.0001120283268392086,1e-04,0.8899999856948853,0.5327905416488647,0.5327905416488647
972,1.0,0.00011188053758814931,0.00011188053758814931,1e-04,0.8899999856948853,0.5326799154281616,0.5326799154281616
973,1.0,0.00011173987877555192,0.00011173987877555192,1e-04,0.8899999856948853,0.5326714515686035,0.5326714515686035
974,1.0,0.00011160161375300959,0.00011160161375300959,1e-04,0.8899999856948853,0.5327771306037903,0.5327771306037903
975,1.0,0.00011148242629133165,0.00011148242629133165,1e-04,0.8899999856948853,0.5330256819725037,0.5330256819725037
976,1.0,0.00011133462976431474,0.00011133462976431474,1e-04,0.8899999856948853,0.5329011678695679,0.5329011678695679
977,1.0,0.00011119279224658385,0.00011119279224658385,1e-04,0.8899999856948853,0.5332996249198914,0.5332996249198914
978,1.0,0.00011103665747214109,0.00011103665747214109,1e-04,0.8899999856948853,0.5335490703582764,0.5335490703582764
979,1.0,0.00011089599865954369,0.00011089599865954369,1e-04,0.8899999856948853,0.5337221622467041,0.5337221622467041
980,1.0,0.00011073509813286364,0.00011073509813286364,1e-04,0.8899999856948853,0.5338063836097717,0.5338063836097717
981,1.0,0.00011059446114813909,0.00011059446114813909,1e-04,0.8899999856948853,0.533791720867157,0.533791720867157
982,1.0,0.00011042520054616034,0.00011042520054616034,1e-04,0.8899999856948853,0.5338669419288635,0.5338669419288635
983,1.0,0.00011029528104700148,0.00011029528104700148,1e-04,0.8899999856948853,0.5340482592582703,0.5340482592582703
984,1.0,0.00011016774806194007,0.00011016774806194007,1e-04,0.8899999856948853,0.534257709980011,0.534257709980011
985,1.0,0.00011004736734321341,0.00011004736734321341,1e-04,0.8899999856948853,0.5343818068504333,0.5343818068504333
986,1.0,0.00010992697207257152,0.00010992697207257152,1e-04,0.8899999856948853,0.534537136554718,0.534537136554718
987,1.0,0.00010979348735418171,0.00010979348735418171,1e-04,0.8899999856948853,0.5346875786781311,0.5346875786781311
988,1.0,0.00010960755025735125,0.00010960755025735125,1e-04,0.8899999856948853,0.5350731015205383,0.5350731015205383
989,1.0,0.00010945617395918816,0.00010945617395918816,1e-04,0.8899999856948853,0.5352057814598083,0.5352057814598083
990,1.0,0.00010933936573565006,0.00010933936573565006,1e-04,0.8899999856948853,0.5356425642967224,0.5356425642967224
991,1.0,0.0001092094462364912,0.0001092094462364912,1e-04,0.8899999856948853,0.5356663465499878,0.5356663465499878
992,1.0,0.00010905806993832812,0.00010905806993832812,1e-04,0.8899999856948853,0.5359033942222595,0.5359033942222595
993,1.0,0.00010892935824813321,0.00010892935824813321,1e-04,0.8899999856948853,0.5361201763153076,0.5361201763153076
994,1.0,0.00010879346518777311,0.00010879346518777311,1e-04,0.8899999856948853,0.5364200472831726,0.5364200472831726
995,1.0,0.00010865401418413967,0.00010865401418413967,1e-04,0.8899999856948853,0.5364651083946228,0.5364651083946228
996,1.0,0.00010853362618945539,0.00010853362618945539,1e-04,0.8899999856948853,0.5364981889724731,0.5364981889724731
997,1.0,0.00010837153240572661,0.00010837153240572661,1e-04,0.8899999856948853,0.5364872217178345,0.5364872217178345
998,1.0,0.0001082547169062309,0.0001082547169062309,1e-04,0.8899999856948853,0.5365316271781921,0.5365316271781921
999,1.0,0.00010813552944455296,0.00010813552944455296,1e-04,0.8899999856948853,0.5367567539215088,0.5367567539215088
