epoch,accuracy,categorical_crossentropy,loss,lr,val_accuracy,val_categorical_crossentropy,val_loss
0,0.6899999976158142,0.7060759663581848,0.7060759663581848,0.001,0.6399999856948853,0.6912857294082642,0.6912857294082642
1,0.7900000214576721,0.5079854726791382,0.5079854726791382,0.001,0.6399999856948853,0.6915187239646912,0.6915187239646912
2,0.7400000095367432,0.47923174500465393,0.47923174500465393,0.001,0.5699999928474426,0.6928392052650452,0.6928392052650452
3,0.8600000143051147,0.3316355049610138,0.3316355049610138,0.001,0.47999998927116394,0.6930119395256042,0.6930119395256042
4,0.9200000166893005,0.2718808650970459,0.2718808650970459,0.001,0.4000000059604645,0.6936157941818237,0.6936157941818237
5,0.8899999856948853,0.2258928120136261,0.2258928120136261,0.001,0.36000001430511475,0.6951970458030701,0.6951970458030701
6,0.9300000071525574,0.1816626936197281,0.1816626936197281,0.001,0.36000001430511475,0.6969620585441589,0.6969620585441589
7,0.9700000286102295,0.15319976210594177,0.15319976210594177,0.001,0.36000001430511475,0.6987549662590027,0.6987549662590027
8,0.9599999785423279,0.12410109490156174,0.12410109490156174,0.001,0.36000001430511475,0.7006285190582275,0.7006285190582275
9,0.9800000190734863,0.11518222093582153,0.11518222093582153,0.001,0.36000001430511475,0.7029847502708435,0.7029847502708435
10,0.949999988079071,0.12521570920944214,0.12521570920944214,0.001,0.36000001430511475,0.7044155597686768,0.7044155597686768
11,0.9900000095367432,0.08061350136995316,0.08061350136995316,0.001,0.36000001430511475,0.7053784728050232,0.7053784728050232
12,0.9900000095367432,0.0759517103433609,0.0759517103433609,0.001,0.36000001430511475,0.7068261504173279,0.7068261504173279
13,0.9800000190734863,0.05767099931836128,0.05767099931836128,0.001,0.36000001430511475,0.7078183889389038,0.7078183889389038
14,0.9800000190734863,0.05416039004921913,0.05416039004921913,0.001,0.36000001430511475,0.7082001566886902,0.7082001566886902
15,1.0,0.033340081572532654,0.033340081572532654,0.001,0.36000001430511475,0.7086805701255798,0.7086805701255798
16,1.0,0.03659213334321976,0.03659213334321976,0.001,0.36000001430511475,0.7094376087188721,0.7094376087188721
17,1.0,0.02790224365890026,0.02790224365890026,0.001,0.36000001430511475,0.7098191976547241,0.7098191976547241
18,1.0,0.02142392471432686,0.02142392471432686,0.001,0.36000001430511475,0.709703803062439,0.709703803062439
19,1.0,0.01735331490635872,0.01735331490635872,0.001,0.36000001430511475,0.7090095281600952,0.7090095281600952
20,1.0,0.01691718026995659,0.01691718026995659,0.001,0.36000001430511475,0.7080250382423401,0.7080250382423401
21,1.0,0.010199964046478271,0.010199964046478271,0.001,0.36000001430511475,0.7069344520568848,0.7069344520568848
22,1.0,0.009349175728857517,0.009349175728857517,0.001,0.36000001430511475,0.7057702541351318,0.7057702541351318
23,1.0,0.010033693164587021,0.010033693164587021,0.001,0.36000001430511475,0.7045121192932129,0.7045121192932129
24,1.0,0.008001687936484814,0.008001687936484814,0.001,0.36000001430511475,0.7030874490737915,0.7030874490737915
25,1.0,0.005373481661081314,0.005373481661081314,0.001,0.36000001430511475,0.7014234662055969,0.7014234662055969
26,1.0,0.004781728610396385,0.004781728610396385,0.001,0.36000001430511475,0.6994307637214661,0.6994307637214661
27,1.0,0.004777281079441309,0.004777281079441309,0.001,0.36000001430511475,0.6971805095672607,0.6971805095672607
28,1.0,0.004344049841165543,0.004344049841165543,0.001,0.44999998807907104,0.6948933601379395,0.6948933601379395
29,1.0,0.003633127547800541,0.003633127547800541,0.001,0.5099999904632568,0.6927635669708252,0.6927635669708252
30,1.0,0.0030165156349539757,0.0030165156349539757,0.001,0.5600000023841858,0.690866231918335,0.690866231918335
31,1.0,0.0025926351081579924,0.0025926351081579924,0.001,0.5699999928474426,0.6891835927963257,0.6891835927963257
32,1.0,0.0023462402168661356,0.0023462402168661356,0.001,0.6000000238418579,0.6876353621482849,0.6876353621482849
33,1.0,0.002244656439870596,0.002244656439870596,0.001,0.6600000262260437,0.6860926747322083,0.6860926747322083
34,1.0,0.002175615169107914,0.002175615169107914,0.001,0.6700000166893005,0.6845252513885498,0.6845252513885498
35,1.0,0.0020241206511855125,0.0020241206511855125,0.001,0.6700000166893005,0.6828779578208923,0.6828779578208923
36,1.0,0.0018098626751452684,0.0018098626751452684,0.001,0.6600000262260437,0.6811480522155762,0.6811480522155762
37,1.0,0.001605454133823514,0.001605454133823514,0.001,0.6600000262260437,0.6793623566627502,0.6793623566627502
38,1.0,0.0014227234059944749,0.0014227234059944749,0.001,0.6499999761581421,0.6775820851325989,0.6775820851325989
39,1.0,0.0012673265300691128,0.0012673265300691128,0.001,0.6499999761581421,0.6758504509925842,0.6758504509925842
40,1.0,0.001170793897472322,0.001170793897472322,0.001,0.6499999761581421,0.6741910576820374,0.6741910576820374
41,1.0,0.001127998111769557,0.001127998111769557,0.001,0.6499999761581421,0.6726191639900208,0.6726191639900208
42,1.0,0.0011117850663140416,0.0011117850663140416,0.001,0.6499999761581421,0.6711899042129517,0.6711899042129517
43,1.0,0.001090695266611874,0.001090695266611874,0.001,0.6399999856948853,0.6698876023292542,0.6698876023292542
44,1.0,0.0010460912017151713,0.0010460912017151713,0.001,0.6399999856948853,0.6686550974845886,0.6686550974845886
45,1.0,0.0009807866299524903,0.0009807866299524903,0.001,0.6399999856948853,0.6675273180007935,0.6675273180007935
46,1.0,0.0009094460401684046,0.0009094460401684046,0.001,0.6399999856948853,0.6664501428604126,0.6664501428604126
47,1.0,0.0008479298558086157,0.0008479298558086157,0.001,0.6399999856948853,0.6654262542724609,0.6654262542724609
48,1.0,0.000803908915258944,0.000803908915258944,0.001,0.6399999856948853,0.664431095123291,0.664431095123291
49,1.0,0.0007753411773592234,0.0007753411773592234,0.001,0.6399999856948853,0.6634654998779297,0.6634654998779297
50,1.0,0.0007556758937425911,0.0007556758937425911,0.001,0.6399999856948853,0.6625169515609741,0.6625169515609741
51,1.0,0.0007346706697717309,0.0007346706697717309,0.001,0.6399999856948853,0.6616001725196838,0.6616001725196838
52,1.0,0.0007076264009810984,0.0007076264009810984,0.001,0.6399999856948853,0.660696804523468,0.660696804523468
53,1.0,0.0006762832636013627,0.0006762832636013627,0.001,0.6399999856948853,0.6598143577575684,0.6598143577575684
54,1.0,0.0006452465313486755,0.0006452465313486755,0.001,0.6399999856948853,0.6589597463607788,0.6589597463607788
55,1.0,0.0006172577850520611,0.0006172577850520611,0.001,0.6399999856948853,0.6581459641456604,0.6581459641456604
56,1.0,0.0005947346799075603,0.0005947346799075603,0.001,0.6399999856948853,0.6573519706726074,0.6573519706726074
57,1.0,0.0005758249899372458,0.0005758249899372458,0.001,0.6399999856948853,0.6566100120544434,0.6566100120544434
58,1.0,0.000559308216907084,0.000559308216907084,0.001,0.6399999856948853,0.655910313129425,0.655910313129425
59,1.0,0.0005438842345029116,0.0005438842345029116,0.001,0.6399999856948853,0.6552484631538391,0.6552484631538391
60,1.0,0.0005284429644234478,0.0005284429644234478,0.001,0.6399999856948853,0.6546424031257629,0.6546424031257629
61,1.0,0.0005137682310305536,0.0005137682310305536,0.001,0.6399999856948853,0.6540762186050415,0.6540762186050415
62,1.0,0.000499717949423939,0.000499717949423939,0.001,0.6399999856948853,0.653563916683197,0.653563916683197
63,1.0,0.00048594531835988164,0.00048594531835988164,0.001,0.6399999856948853,0.6530857682228088,0.6530857682228088
64,1.0,0.0004726990591734648,0.0004726990591734648,0.001,0.6399999856948853,0.6526451706886292,0.6526451706886292
65,1.0,0.00045985475298948586,0.00045985475298948586,0.001,0.6399999856948853,0.6522360444068909,0.6522360444068909
66,1.0,0.0004467841936275363,0.0004467841936275363,0.001,0.6399999856948853,0.6518527865409851,0.6518527865409851
67,1.0,0.00043470601667650044,0.00043470601667650044,0.001,0.6399999856948853,0.6514949798583984,0.6514949798583984
68,1.0,0.0004239875415805727,0.0004239875415805727,0.001,0.6399999856948853,0.6511481404304504,0.6511481404304504
69,1.0,0.00041445664828643203,0.00041445664828643203,0.001,0.6399999856948853,0.6508181095123291,0.6508181095123291
70,1.0,0.0004060569917783141,0.0004060569917783141,0.001,0.6399999856948853,0.6505081653594971,0.6505081653594971
71,1.0,0.000398475443944335,0.000398475443944335,0.001,0.6399999856948853,0.6502202749252319,0.6502202749252319
72,1.0,0.00039123359601944685,0.00039123359601944685,0.001,0.6399999856948853,0.6499416828155518,0.6499416828155518
73,1.0,0.00038407795364037156,0.00038407795364037156,0.001,0.6399999856948853,0.6496928930282593,0.6496928930282593
74,1.0,0.0003769789182115346,0.0003769789182115346,0.001,0.6399999856948853,0.6494542956352234,0.6494542956352234
75,1.0,0.00036998323048464954,0.00036998323048464954,0.001,0.6399999856948853,0.6492480635643005,0.6492480635643005
76,1.0,0.0003634159220382571,0.0003634159220382571,0.001,0.6399999856948853,0.6490746140480042,0.6490746140480042
77,1.0,0.00035690460936166346,0.00035690460936166346,0.001,0.6399999856948853,0.6489213705062866,0.6489213705062866
78,1.0,0.0003508363151922822,0.0003508363151922822,0.001,0.6399999856948853,0.6488085389137268,0.6488085389137268
79,1.0,0.0003450122894719243,0.0003450122894719243,0.001,0.6399999856948853,0.6487292647361755,0.6487292647361755
80,1.0,0.00033937671105377376,0.00033937671105377376,0.001,0.6399999856948853,0.6486803293228149,0.6486803293228149
81,1.0,0.00033350312151014805,0.00033350312151014805,0.001,0.6399999856948853,0.6486499309539795,0.6486499309539795
82,1.0,0.00032780718174763024,0.00032780718174763024,0.001,0.6399999856948853,0.6486560702323914,0.6486560702323914
83,1.0,0.0003224438114557415,0.0003224438114557415,0.001,0.6399999856948853,0.648689866065979,0.648689866065979
84,1.0,0.00031709831091575325,0.00031709831091575325,0.001,0.6399999856948853,0.6487526893615723,0.6487526893615723
85,1.0,0.0003122840716969222,0.0003122840716969222,0.001,0.6399999856948853,0.6488308906555176,0.6488308906555176
86,1.0,0.0003075864806305617,0.0003075864806305617,0.001,0.6399999856948853,0.6489356160163879,0.6489356160163879
87,1.0,0.0003032140957657248,0.0003032140957657248,0.001,0.6399999856948853,0.6490592360496521,0.6490592360496521
88,1.0,0.0002989809727296233,0.0002989809727296233,0.001,0.6399999856948853,0.6491930484771729,0.6491930484771729
89,1.0,0.0002947751490864903,0.0002947751490864903,0.001,0.6399999856948853,0.6493633985519409,0.6493633985519409
90,1.0,0.00029086944414302707,0.00029086944414302707,0.001,0.6399999856948853,0.6495435237884521,0.6495435237884521
91,1.0,0.00028686958830803633,0.00028686958830803633,0.001,0.6399999856948853,0.6497472524642944,0.6497472524642944
92,1.0,0.0002829840232152492,0.0002829840232152492,0.001,0.6399999856948853,0.6499517560005188,0.6499517560005188
93,1.0,0.0002790864964481443,0.0002790864964481443,0.001,0.6399999856948853,0.6501834392547607,0.6501834392547607
94,1.0,0.00027562023024074733,0.00027562023024074733,0.001,0.6399999856948853,0.650418221950531,0.650418221950531
95,1.0,0.0002719704934861511,0.0002719704934861511,0.001,0.6399999856948853,0.6506718993186951,0.6506718993186951
96,1.0,0.00026868892018683255,0.00026868892018683255,0.001,0.6399999856948853,0.650937020778656,0.650937020778656
97,1.0,0.0002653847332112491,0.0002653847332112491,0.001,0.6399999856948853,0.6512104868888855,0.6512104868888855
98,1.0,0.00026217231061309576,0.00026217231061309576,0.001,0.6399999856948853,0.651487410068512,0.651487410068512
99,1.0,0.0002589861978776753,0.0002589861978776753,0.001,0.6399999856948853,0.6517732739448547,0.6517732739448547
100,1.0,0.0002559121057856828,0.0002559121057856828,0.001,0.6399999856948853,0.6520658731460571,0.6520658731460571
101,1.0,0.0002528154000174254,0.0002528154000174254,0.001,0.6399999856948853,0.6523869037628174,0.6523869037628174
102,1.0,0.00024983542971313,0.00024983542971313,0.001,0.6399999856948853,0.6526997089385986,0.6526997089385986
103,1.0,0.00024696148466318846,0.00024696148466318846,0.001,0.6399999856948853,0.6530375480651855,0.6530375480651855
104,1.0,0.00024397789093200117,0.00024397789093200117,0.001,0.6399999856948853,0.6533835530281067,0.6533835530281067
105,1.0,0.00024123972980305552,0.00024123972980305552,0.001,0.6399999856948853,0.6537327766418457,0.6537327766418457
106,1.0,0.00023854078608565032,0.00023854078608565032,0.001,0.6399999856948853,0.6540982127189636,0.6540982127189636
107,1.0,0.00023581559071317315,0.00023581559071317315,0.001,0.6399999856948853,0.6544931530952454,0.6544931530952454
108,1.0,0.00023310352116823196,0.00023310352116823196,0.001,0.6399999856948853,0.6548708081245422,0.6548708081245422
109,1.0,0.0002305105299456045,0.0002305105299456045,0.001,0.6399999856948853,0.6552671194076538,0.6552671194076538
110,1.0,0.00022796998382546008,0.00022796998382546008,0.001,0.6399999856948853,0.655672550201416,0.655672550201416
111,1.0,0.0002255187719129026,0.0002255187719129026,0.001,0.6399999856948853,0.6560898423194885,0.6560898423194885
112,1.0,0.0002230389800388366,0.0002230389800388366,0.001,0.6399999856948853,0.6565034985542297,0.6565034985542297
113,1.0,0.0002207176439696923,0.0002207176439696923,0.001,0.6399999856948853,0.6569200158119202,0.6569200158119202
114,1.0,0.00021839274268131703,0.00021839274268131703,0.001,0.6399999856948853,0.6573191285133362,0.6573191285133362
115,1.0,0.00021619178005494177,0.00021619178005494177,0.001,0.6399999856948853,0.6577185988426208,0.6577185988426208
116,1.0,0.0002139657735824585,0.0002139657735824585,0.001,0.6399999856948853,0.6581369042396545,0.6581369042396545
117,1.0,0.0002117993717547506,0.0002117993717547506,0.001,0.6399999856948853,0.6585671305656433,0.6585671305656433
118,1.0,0.00020963296992704272,0.00020963296992704272,0.001,0.6399999856948853,0.6589804887771606,0.6589804887771606
119,1.0,0.00020747965027112514,0.00020747965027112514,0.001,0.6399999856948853,0.6593887209892273,0.6593887209892273
120,1.0,0.0002053895004792139,0.0002053895004792139,0.001,0.6399999856948853,0.6597843170166016,0.6597843170166016
121,1.0,0.00020340658375062048,0.00020340658375062048,0.001,0.6399999856948853,0.6602181792259216,0.6602181792259216
122,1.0,0.00020138075342401862,0.00020138075342401862,0.001,0.6399999856948853,0.6606189608573914,0.6606189608573914
123,1.0,0.0001993727928493172,0.0001993727928493172,0.001,0.6399999856948853,0.6610562801361084,0.6610562801361084
124,1.0,0.00019749348575714976,0.00019749348575714976,0.001,0.6399999856948853,0.6614553332328796,0.6614553332328796
125,1.0,0.00019545810937415808,0.00019545810937415808,0.001,0.6399999856948853,0.6618690490722656,0.6618690490722656
126,1.0,0.00019362526654731482,0.00019362526654731482,0.001,0.6399999856948853,0.6623070240020752,0.6623070240020752
127,1.0,0.00019175311899743974,0.00019175311899743974,0.001,0.6399999856948853,0.662751317024231,0.662751317024231
128,1.0,0.00018999053281731904,0.00018999053281731904,0.001,0.6399999856948853,0.6631899476051331,0.6631899476051331
129,1.0,0.00018813861242961138,0.00018813861242961138,0.001,0.6399999856948853,0.663649320602417,0.663649320602417
130,1.0,0.0001863998913904652,0.0001863998913904652,0.001,0.6399999856948853,0.6640708446502686,0.6640708446502686
131,1.0,0.00018467428162693977,0.00018467428162693977,0.0005,0.6399999856948853,0.6643676161766052,0.6643676161766052
132,1.0,0.0001837637828430161,0.0001837637828430161,0.0005,0.6399999856948853,0.6646801233291626,0.6646801233291626
133,1.0,0.00018289261788595468,0.00018289261788595468,0.0005,0.6399999856948853,0.6649630665779114,0.6649630665779114
134,1.0,0.000182103700353764,0.000182103700353764,0.0005,0.6399999856948853,0.6652445793151855,0.6652445793151855
135,1.0,0.00018132552213501185,0.00018132552213501185,0.0005,0.6399999856948853,0.6655080318450928,0.6655080318450928
136,1.0,0.0001804424391593784,0.0001804424391593784,0.0005,0.6399999856948853,0.6657856106758118,0.6657856106758118
137,1.0,0.0001796571013983339,0.0001796571013983339,0.0005,0.6399999856948853,0.666012704372406,0.666012704372406
138,1.0,0.00017887772992253304,0.00017887772992253304,0.0005,0.6399999856948853,0.6662342548370361,0.6662342548370361
139,1.0,0.00017806260439101607,0.00017806260439101607,0.0005,0.6399999856948853,0.6664491295814514,0.6664491295814514
140,1.0,0.0001772867690306157,0.0001772867690306157,0.0005,0.6399999856948853,0.6666473150253296,0.6666473150253296
141,1.0,0.0001765526394592598,0.0001765526394592598,0.0005,0.6399999856948853,0.6668301224708557,0.6668301224708557
142,1.0,0.00017573153309058398,0.00017573153309058398,0.0005,0.6399999856948853,0.6670132279396057,0.6670132279396057
143,1.0,0.00017497003136668354,0.00017497003136668354,0.0005,0.6399999856948853,0.66718590259552,0.66718590259552
144,1.0,0.0001742346939863637,0.0001742346939863637,0.0005,0.6399999856948853,0.6673404574394226,0.6673404574394226
145,1.0,0.0001734732068143785,0.0001734732068143785,0.0005,0.6399999856948853,0.6674635410308838,0.6674635410308838
146,1.0,0.00017269141972064972,0.00017269141972064972,0.0005,0.6399999856948853,0.667590856552124,0.667590856552124
147,1.0,0.00017182617739308625,0.00017182617739308625,0.0005,0.6399999856948853,0.6676895618438721,0.6676895618438721
148,1.0,0.00017108730389736593,0.00017108730389736593,0.0005,0.6399999856948853,0.6677832007408142,0.6677832007408142
149,1.0,0.00017039132944773883,0.00017039132944773883,0.0005,0.6399999856948853,0.667874276638031,0.667874276638031
150,1.0,0.00016963694361038506,0.00016963694361038506,0.0005,0.6399999856948853,0.6678971648216248,0.6678971648216248
151,1.0,0.00016890402184799314,0.00016890402184799314,0.0005,0.6399999856948853,0.6679391264915466,0.6679391264915466
152,1.0,0.00016817703726701438,0.00016817703726701438,0.0005,0.6399999856948853,0.6679592728614807,0.6679592728614807
153,1.0,0.00016744769527576864,0.00016744769527576864,0.0005,0.6399999856948853,0.6679749488830566,0.6679749488830566
154,1.0,0.00016666468582116067,0.00016666468582116067,0.0005,0.6399999856948853,0.6679404973983765,0.6679404973983765
155,1.0,0.0001659067493164912,0.0001659067493164912,0.0005,0.6399999856948853,0.6679023504257202,0.6679023504257202
156,1.0,0.0001651821512496099,0.0001651821512496099,0.0005,0.6399999856948853,0.6678406000137329,0.6678406000137329
157,1.0,0.0001644992589717731,0.0001644992589717731,0.0005,0.6399999856948853,0.6677904725074768,0.6677904725074768
158,1.0,0.0001637663081055507,0.0001637663081055507,0.0005,0.6399999856948853,0.6676992177963257,0.6676992177963257
159,1.0,0.00016309296188410372,0.00016309296188410372,0.0005,0.6399999856948853,0.6675499081611633,0.6675499081611633
160,1.0,0.00016241009871009737,0.00016241009871009737,0.0005,0.6399999856948853,0.667417049407959,0.667417049407959
161,1.0,0.00016167953435797244,0.00016167953435797244,0.0005,0.6399999856948853,0.6672292947769165,0.6672292947769165
162,1.0,0.00016095969476737082,0.00016095969476737082,0.0005,0.6399999856948853,0.6670884490013123,0.6670884490013123
163,1.0,0.00016028159006964415,0.00016028159006964415,0.0005,0.6399999856948853,0.6668758988380432,0.6668758988380432
164,1.0,0.00015956889546941966,0.00015956889546941966,0.0005,0.6399999856948853,0.6666249632835388,0.6666249632835388
165,1.0,0.00015888718189671636,0.00015888718189671636,0.0005,0.6399999856948853,0.6663088202476501,0.6663088202476501
166,1.0,0.0001582400727784261,0.0001582400727784261,0.0005,0.6399999856948853,0.6660336852073669,0.6660336852073669
167,1.0,0.00015753692423459142,0.00015753692423459142,0.0005,0.6399999856948853,0.6656829714775085,0.6656829714775085
168,1.0,0.0001568373409099877,0.0001568373409099877,0.0005,0.6399999856948853,0.66533362865448,0.66533362865448
169,1.0,0.00015617828466929495,0.00015617828466929495,0.0005,0.6399999856948853,0.6649242639541626,0.6649242639541626
170,1.0,0.00015554069250356406,0.00015554069250356406,0.0005,0.6399999856948853,0.6644880175590515,0.6644880175590515
171,1.0,0.00015487210475839674,0.00015487210475839674,0.0005,0.6399999856948853,0.6640379428863525,0.6640379428863525
172,1.0,0.00015420351701322943,0.00015420351701322943,0.0005,0.6399999856948853,0.6635158658027649,0.6635158658027649
173,1.0,0.0001535456394776702,0.0001535456394776702,0.0005,0.6399999856948853,0.6630412340164185,0.6630412340164185
174,1.0,0.0001529139990452677,0.0001529139990452677,0.0005,0.6399999856948853,0.6624636650085449,0.6624636650085449
175,1.0,0.00015228592383209616,0.00015228592383209616,0.0005,0.6399999856948853,0.661878764629364,0.661878764629364
176,1.0,0.0001516423508292064,0.0001516423508292064,0.0005,0.6399999856948853,0.6613320112228394,0.6613320112228394
177,1.0,0.00015097732830327004,0.00015097732830327004,0.0005,0.6399999856948853,0.6606780290603638,0.6606780290603638
178,1.0,0.00015035760588943958,0.00015035760588943958,0.0005,0.6399999856948853,0.6600576043128967,0.6600576043128967
179,1.0,0.00014972953067626804,0.00014972953067626804,0.0005,0.6399999856948853,0.6593985557556152,0.6593985557556152
180,1.0,0.0001490871363785118,0.0001490871363785118,0.0005,0.6399999856948853,0.6586255431175232,0.6586255431175232
181,1.0,0.00014849122089799494,0.00014849122089799494,0.00025,0.6399999856948853,0.6578472256660461,0.6578472256660461
182,1.0,0.00014814799942541867,0.00014814799942541867,0.00025,0.6399999856948853,0.6569810509681702,0.6569810509681702
183,1.0,0.000147801183629781,0.000147801183629781,0.00025,0.6399999856948853,0.656029224395752,0.656029224395752
184,1.0,0.0001475246826885268,0.0001475246826885268,0.00025,0.6399999856948853,0.6550413370132446,0.6550413370132446
185,1.0,0.00014725651999469846,0.00014725651999469846,0.00025,0.6399999856948853,0.6540495157241821,0.6540495157241821
186,1.0,0.0001469490525778383,0.0001469490525778383,0.00025,0.6399999856948853,0.6530563831329346,0.6530563831329346
187,1.0,0.00014661176828667521,0.00014661176828667521,0.00025,0.6399999856948853,0.6519762277603149,0.6519762277603149
188,1.0,0.00014634123363066465,0.00014634123363066465,0.00025,0.6399999856948853,0.6508780121803284,0.6508780121803284
189,1.0,0.00014606949116569012,0.00014606949116569012,0.00025,0.6399999856948853,0.6497620344161987,0.6497620344161987
190,1.0,0.0001457286416552961,0.0001457286416552961,0.00025,0.6399999856948853,0.6485922336578369,0.6485922336578369
191,1.0,0.0001453806326026097,0.0001453806326026097,0.00025,0.6399999856948853,0.6473796367645264,0.6473796367645264
192,1.0,0.0001450934068998322,0.0001450934068998322,0.00025,0.6399999856948853,0.6460906863212585,0.6460906863212585
193,1.0,0.000144801422720775,0.000144801422720775,0.00025,0.6399999856948853,0.6447947025299072,0.6447947025299072
194,1.0,0.00014448678120970726,0.00014448678120970726,0.00025,0.6399999856948853,0.6434438228607178,0.6434438228607178
195,1.0,0.00014421861851587892,0.00014421861851587892,0.00025,0.6399999856948853,0.6420412659645081,0.6420412659645081
196,1.0,0.0001439039915567264,0.0001439039915567264,0.00025,0.6399999856948853,0.6406558752059937,0.6406558752059937
197,1.0,0.0001436095917597413,0.0001436095917597413,0.00025,0.6399999856948853,0.6392664313316345,0.6392664313316345
198,1.0,0.0001432747085345909,0.0001432747085345909,0.00025,0.6399999856948853,0.6378374099731445,0.6378374099731445
199,1.0,0.000142968405270949,0.000142968405270949,0.00025,0.6399999856948853,0.636320173740387,0.636320173740387
200,1.0,0.000142639473779127,0.000142639473779127,0.00025,0.6399999856948853,0.634758472442627,0.634758472442627
201,1.0,0.000142353426781483,0.000142353426781483,0.00025,0.6399999856948853,0.6332092881202698,0.6332092881202698
202,1.0,0.00014204236504156142,0.00014204236504156142,0.00025,0.6399999856948853,0.6316549181938171,0.6316549181938171
203,1.0,0.0001417444145772606,0.0001417444145772606,0.00025,0.6499999761581421,0.6300655603408813,0.6300655603408813
204,1.0,0.00014141904830466956,0.00014141904830466956,0.00025,0.6499999761581421,0.6284202337265015,0.6284202337265015
205,1.0,0.0001411306147929281,0.0001411306147929281,0.00025,0.6499999761581421,0.6267492175102234,0.6267492175102234
206,1.0,0.00014082193956710398,0.00014082193956710398,0.00025,0.6499999761581421,0.6251252293586731,0.6251252293586731
207,1.0,0.0001405359071213752,0.0001405359071213752,0.00025,0.6499999761581421,0.6234282851219177,0.6234282851219177
208,1.0,0.00014021649258211255,0.00014021649258211255,0.00025,0.6499999761581421,0.6217397451400757,0.6217397451400757
209,1.0,0.00013991259038448334,0.00013991259038448334,0.00025,0.6499999761581421,0.6200336217880249,0.6200336217880249
210,1.0,0.0001396766019752249,0.0001396766019752249,0.00025,0.6499999761581421,0.6183328628540039,0.6183328628540039
211,1.0,0.00013936196046415716,0.00013936196046415716,0.00025,0.6499999761581421,0.6165992617607117,0.6165992617607117
212,1.0,0.0001390508987242356,0.0001390508987242356,0.00025,0.6499999761581421,0.6148913502693176,0.6148913502693176
213,1.0,0.00013877083256375045,0.00013877083256375045,0.00025,0.6499999761581421,0.6131736040115356,0.6131736040115356
214,1.0,0.00013846572255715728,0.00013846572255715728,0.00025,0.6499999761581421,0.611487627029419,0.611487627029419
215,1.0,0.00013817372382618487,0.00013817372382618487,0.00025,0.6499999761581421,0.6097711324691772,0.6097711324691772
216,1.0,0.00013786982162855566,0.00013786982162855566,0.00025,0.6499999761581421,0.6080507040023804,0.6080507040023804
217,1.0,0.00013756350381299853,0.00013756350381299853,0.00025,0.6499999761581421,0.6064110398292542,0.6064110398292542
218,1.0,0.00013726079487241805,0.00013726079487241805,0.00025,0.6499999761581421,0.6046565771102905,0.6046565771102905
219,1.0,0.0001369652309222147,0.0001369652309222147,0.00025,0.6600000262260437,0.6029568910598755,0.6029568910598755
220,1.0,0.0001366946817142889,0.0001366946817142889,0.00025,0.6600000262260437,0.6013087034225464,0.6013087034225464
221,1.0,0.0001363776536891237,0.0001363776536891237,0.00025,0.6700000166893005,0.5996129512786865,0.5996129512786865
222,1.0,0.0001360868482152,0.0001360868482152,0.00025,0.6700000166893005,0.5980091691017151,0.5980091691017151
223,1.0,0.00013581033272203058,0.00013581033272203058,0.00025,0.6800000071525574,0.5964066982269287,0.5964066982269287
224,1.0,0.00013554218458011746,0.00013554218458011746,0.00025,0.6800000071525574,0.5947816967964172,0.5947816967964172
225,1.0,0.0001352585240965709,0.0001352585240965709,0.00025,0.6899999976158142,0.5931910872459412,0.5931910872459412
226,1.0,0.0001349355443380773,0.0001349355443380773,0.00025,0.6899999976158142,0.5915957093238831,0.5915957093238831
227,1.0,0.0001346602221019566,0.0001346602221019566,0.00025,0.7200000286102295,0.5900660157203674,0.5900660157203674
228,1.0,0.00013434916036203504,0.00013434916036203504,0.00025,0.7099999785423279,0.5884999632835388,0.5884999632835388
229,1.0,0.0001340798189630732,0.0001340798189630732,0.00025,0.7099999785423279,0.5870311260223389,0.5870311260223389
230,1.0,0.00013379615847952664,0.00013379615847952664,0.00025,0.7099999785423279,0.5855298638343811,0.5855298638343811
231,1.0,0.00013350654626265168,0.00013350654626265168,0.00025,0.7099999785423279,0.5840931534767151,0.5840931534767151
232,1.0,0.00013321693404577672,0.00013321693404577672,0.00025,0.7099999785423279,0.5826922059059143,0.5826922059059143
233,1.0,0.00013291182403918356,0.00013291182403918356,0.00025,0.7099999785423279,0.5813248157501221,0.5813248157501221
234,1.0,0.00013262101856525987,0.00013262101856525987,0.00025,0.7099999785423279,0.5799855589866638,0.5799855589866638
235,1.0,0.00013229087926447392,0.00013229087926447392,0.00025,0.7099999785423279,0.5786641836166382,0.5786641836166382
236,1.0,0.00013205011782702059,0.00013205011782702059,0.00025,0.7099999785423279,0.5773873925209045,0.5773873925209045
237,1.0,0.0001317366841249168,0.0001317366841249168,0.00025,0.7200000286102295,0.5761318206787109,0.5761318206787109
238,1.0,0.00013145539560355246,0.00013145539560355246,0.00025,0.7200000286102295,0.5749199986457825,0.5749199986457825
239,1.0,0.00013114670582581311,0.00013114670582581311,0.00025,0.7400000095367432,0.5737639665603638,0.5737639665603638
240,1.0,0.00013089165440760553,0.00013089165440760553,0.00025,0.7400000095367432,0.5726351737976074,0.5726351737976074
241,1.0,0.0001306235062656924,0.0001306235062656924,0.00025,0.7599999904632568,0.5715513825416565,0.5715513825416565
242,1.0,0.00013033626601099968,0.00013033626601099968,0.00025,0.7599999904632568,0.57056725025177,0.57056725025177
243,1.0,0.00013007524830754846,0.00013007524830754846,0.00025,0.7599999904632568,0.5695786476135254,0.5695786476135254
244,1.0,0.00012977610458619893,0.00012977610458619893,0.00025,0.7599999904632568,0.5686331391334534,0.5686331391334534
245,1.0,0.0001294864632654935,0.0001294864632654935,0.00025,0.7699999809265137,0.567766010761261,0.567766010761261
246,1.0,0.00012921950838062912,0.00012921950838062912,0.00025,0.7699999809265137,0.566931962966919,0.566931962966919
247,1.0,0.00012890009384136647,0.00012890009384136647,0.00025,0.7699999809265137,0.5661604404449463,0.5661604404449463
248,1.0,0.00012863549636676908,0.00012863549636676908,0.00025,0.7699999809265137,0.565396249294281,0.565396249294281
249,1.0,0.00012839952250942588,0.00012839952250942588,0.00025,0.7599999904632568,0.5647454857826233,0.5647454857826233
250,1.0,0.00012811228225473315,0.00012811228225473315,0.00025,0.7699999809265137,0.5641435980796814,0.5641435980796814
251,1.0,0.00012785723083652556,0.00012785723083652556,0.00025,0.7599999904632568,0.5635899901390076,0.5635899901390076
252,1.0,0.0001275687973247841,0.0001275687973247841,0.00025,0.7599999904632568,0.5631029009819031,0.5631029009819031
253,1.0,0.00012725773558486253,0.00012725773558486253,0.00025,0.7699999809265137,0.5627142190933228,0.5627142190933228
254,1.0,0.00012699673243332654,0.00012699673243332654,0.00025,0.7699999809265137,0.5622925758361816,0.5622925758361816
255,1.0,0.00012674763274844736,0.00012674763274844736,0.00025,0.7699999809265137,0.5620278716087341,0.5620278716087341
256,1.0,0.00012649255222640932,0.00012649255222640932,0.00025,0.7699999809265137,0.561745822429657,0.561745822429657
257,1.0,0.00012622082431335002,0.00012622082431335002,0.00025,0.7699999809265137,0.5616282820701599,0.5616282820701599
258,1.0,0.00012593241990543902,0.00012593241990543902,0.00025,0.75,0.5616128444671631,0.5616128444671631
259,1.0,0.00012566187069751322,0.00012566187069751322,0.00025,0.75,0.5615206956863403,0.5615206956863403
260,1.0,0.00012537342263385653,0.00012537342263385653,0.00025,0.7400000095367432,0.5615348219871521,0.5615348219871521
261,1.0,0.00012510646774899215,0.00012510646774899215,0.00025,0.75,0.5616145730018616,0.5616145730018616
262,1.0,0.000124828758998774,0.000124828758998774,0.00025,0.7599999904632568,0.5618576407432556,0.5618576407432556
263,1.0,0.00012453914678189903,0.00012453914678189903,0.00025,0.7599999904632568,0.5621177554130554,0.5621177554130554
264,1.0,0.00012425427848938853,0.00012425427848938853,0.00025,0.7799999713897705,0.5624398589134216,0.5624398589134216
265,1.0,0.00012398850230965763,0.00012398850230965763,0.00025,0.7699999809265137,0.56295245885849,0.56295245885849
266,1.0,0.00012373940262477845,0.00012373940262477845,0.00025,0.7699999809265137,0.5634210109710693,0.5634210109710693
267,1.0,0.00012346527364570647,0.00012346527364570647,0.00025,0.7699999809265137,0.5638809204101562,0.5638809204101562
268,1.0,0.00012314585910644382,0.00012314585910644382,0.00025,0.7699999809265137,0.5644525289535522,0.5644525289535522
269,1.0,0.00012288722791709006,0.00012288722791709006,0.00025,0.7699999809265137,0.56512850522995,0.56512850522995
270,1.0,0.00012261667870916426,0.00012261667870916426,0.00025,0.7699999809265137,0.5657974481582642,0.5657974481582642
271,1.0,0.00012233421148266643,0.00012233421148266643,0.00025,0.7799999713897705,0.5666832327842712,0.5666832327842712
272,1.0,0.00012206485553178936,0.00012206485553178936,0.00025,0.7799999713897705,0.5677220821380615,0.5677220821380615
273,1.0,0.00012178954057162628,0.00012178954057162628,0.00025,0.7900000214576721,0.5686689019203186,0.5686689019203186
274,1.0,0.00012154639989603311,0.00012154639989603311,0.00025,0.7900000214576721,0.5696359872817993,0.5696359872817993
275,1.0,0.00012128418165957555,0.00012128418165957555,0.00025,0.7799999713897705,0.5705812573432922,0.5705812573432922
276,1.0,0.0001210171976708807,0.0001210171976708807,0.00025,0.7799999713897705,0.5717587471008301,0.5717587471008301
277,1.0,0.00012074666301487014,0.00012074666301487014,0.00025,0.7699999809265137,0.5728812217712402,0.5728812217712402
278,1.0,0.00012047372001688927,0.00012047372001688927,0.00025,0.7599999904632568,0.5741081237792969,0.5741081237792969
279,1.0,0.0001202150815515779,0.0001202150815515779,0.00025,0.7599999904632568,0.5754768252372742,0.5754768252372742
280,1.0,0.00011996122339041904,0.00011996122339041904,0.00025,0.75,0.5768548846244812,0.5768548846244812
281,1.0,0.00011971213098149747,0.00011971213098149747,0.00025,0.75,0.5784108638763428,0.5784108638763428
282,1.0,0.00011942847049795091,0.00011942847049795091,0.00025,0.75,0.5799010396003723,0.5799010396003723
283,1.0,0.00011920437827939168,0.00011920437827939168,0.00025,0.75,0.5815296173095703,0.5815296173095703
284,1.0,0.00011896363139385357,0.00011896363139385357,0.00025,0.75,0.5830934047698975,0.5830934047698975
285,1.0,0.00011870617890963331,0.00011870617890963331,0.00025,0.75,0.5848075151443481,0.5848075151443481
286,1.0,0.00011845589324366301,0.00011845589324366301,0.00025,0.7400000095367432,0.5868265628814697,0.5868265628814697
287,1.0,0.00011817818449344486,0.00011817818449344486,0.00025,0.7300000190734863,0.5888797640800476,0.5888797640800476
288,1.0,0.00011793147859862074,0.00011793147859862074,0.00025,0.7400000095367432,0.5907637476921082,0.5907637476921082
289,1.0,0.0001176740406663157,0.0001176740406663157,0.00025,0.7400000095367432,0.5925356149673462,0.5925356149673462
290,1.0,0.00011738680041162297,0.00011738680041162297,0.00025,0.7200000286102295,0.5944962501525879,0.5944962501525879
291,1.0,0.00011715438449755311,0.00011715438449755311,0.00025,0.7099999785423279,0.5966583490371704,0.5966583490371704
292,1.0,0.00011690051178447902,0.00011690051178447902,0.00025,0.699999988079071,0.5989813804626465,0.5989813804626465
293,1.0,0.00011662757606245577,0.00011662757606245577,0.00025,0.699999988079071,0.6011949777603149,0.6011949777603149
294,1.0,0.00011638085561571643,0.00011638085561571643,0.00025,0.699999988079071,0.6031002998352051,0.6031002998352051
295,1.0,0.00011613414972089231,0.00011613414972089231,0.00025,0.699999988079071,0.6051780581474304,0.6051780581474304
296,1.0,0.00011589934001676738,0.00011589934001676738,0.00025,0.699999988079071,0.6073310971260071,0.6073310971260071
297,1.0,0.00011563594307517633,0.00011563594307517633,0.00025,0.699999988079071,0.6095637083053589,0.6095637083053589
298,1.0,0.00011538803664734587,0.00011538803664734587,0.00025,0.6899999976158142,0.6116780638694763,0.6116780638694763
299,1.0,0.00011514370271470398,0.00011514370271470398,0.00025,0.6899999976158142,0.6138404011726379,0.6138404011726379
300,1.0,0.00011486360745038837,0.00011486360745038837,0.00025,0.6899999976158142,0.6160063147544861,0.6160063147544861
301,1.0,0.00011460736277513206,0.00011460736277513206,0.00025,0.6899999976158142,0.6182264089584351,0.6182264089584351
302,1.0,0.00011435230408096686,0.00011435230408096686,0.00025,0.699999988079071,0.6203005313873291,0.6203005313873291
303,1.0,0.0001140960375778377,0.0001140960375778377,0.00025,0.6899999976158142,0.6225351095199585,0.6225351095199585
304,1.0,0.0001138147636083886,0.0001138147636083886,0.00025,0.6899999976158142,0.6250160932540894,0.6250160932540894
305,1.0,0.00011360737698851153,0.00011360737698851153,0.00025,0.6800000071525574,0.627510130405426,0.627510130405426
306,1.0,0.00011333563452353701,0.00011333563452353701,0.00025,0.6800000071525574,0.6303540468215942,0.6303540468215942
307,1.0,0.00011309248657198623,0.00011309248657198623,0.00025,0.6899999976158142,0.6327042579650879,0.6327042579650879
308,1.0,0.00011284337961114943,0.00011284337961114943,0.00025,0.6899999976158142,0.6350875496864319,0.6350875496864319
309,1.0,0.00011260738392593339,0.00011260738392593339,0.00025,0.6899999976158142,0.6378704905509949,0.6378704905509949
310,1.0,0.00011237616854486987,0.00011237616854486987,0.000125,0.6899999976158142,0.6404540538787842,0.6404540538787842
311,1.0,0.00011226651986362413,0.00011226651986362413,0.000125,0.6899999976158142,0.6430995464324951,0.6430995464324951
312,1.0,0.00011214494588784873,0.00011214494588784873,0.000125,0.6899999976158142,0.6456990242004395,0.6456990242004395
313,1.0,0.00011201026063645259,0.00011201026063645259,0.000125,0.6899999976158142,0.6482993960380554,0.6482993960380554
314,1.0,0.00011190180521225557,0.00011190180521225557,0.000125,0.6899999976158142,0.6510505080223083,0.6510505080223083
315,1.0,0.00011175877443747595,0.00011175877443747595,0.000125,0.6899999976158142,0.6535916328430176,0.6535916328430176
316,1.0,0.00011164673924213275,0.00011164673924213275,0.000125,0.6899999976158142,0.6560837626457214,0.6560837626457214
317,1.0,0.00011150729551445693,0.00011150729551445693,0.000125,0.6899999976158142,0.6587238907814026,0.6587238907814026
318,1.0,0.00011139287380501628,0.00011139287380501628,0.000125,0.6899999976158142,0.6611782312393188,0.6611782312393188
319,1.0,0.0001113022881327197,0.0001113022881327197,0.000125,0.699999988079071,0.6638643741607666,0.6638643741607666
320,1.0,0.00011117713438579813,0.00011117713438579813,0.000125,0.699999988079071,0.6665003895759583,0.6665003895759583
321,1.0,0.00011103291035396978,0.00011103291035396978,0.000125,0.699999988079071,0.6692550182342529,0.6692550182342529
322,1.0,0.00011094590445281938,0.00011094590445281938,0.000125,0.699999988079071,0.6715238690376282,0.6715238690376282
323,1.0,0.00011083506251452491,0.00011083506251452491,0.000125,0.699999988079071,0.6737505197525024,0.6737505197525024
324,1.0,0.00011070158507209271,0.00011070158507209271,0.000125,0.699999988079071,0.6761041879653931,0.6761041879653931
325,1.0,0.00011056093353545293,0.00011056093353545293,0.000125,0.699999988079071,0.6786927580833435,0.6786927580833435
326,1.0,0.00011043579434044659,0.00011043579434044659,0.000125,0.699999988079071,0.681052029132843,0.681052029132843
327,1.0,0.00011034282943001017,0.00011034282943001017,0.000125,0.699999988079071,0.6830371618270874,0.6830371618270874
328,1.0,0.00011021291720680892,0.00011021291720680892,0.000125,0.699999988079071,0.6854689717292786,0.6854689717292786
329,1.0,0.00011009610898327082,0.00011009610898327082,0.000125,0.699999988079071,0.688261091709137,0.688261091709137
330,1.0,0.00010995189950335771,0.00010995189950335771,0.000125,0.699999988079071,0.6904280185699463,0.6904280185699463
331,1.0,0.00010986488632624969,0.00010986488632624969,0.000125,0.699999988079071,0.6926865577697754,0.6926865577697754
332,1.0,0.00010970993753289804,0.00010970993753289804,0.000125,0.699999988079071,0.695522665977478,0.695522665977478
333,1.0,0.00010958599159494042,0.00010958599159494042,0.000125,0.7099999785423279,0.6978868842124939,0.6978868842124939
334,1.0,0.00010945726535283029,0.00010945726535283029,0.000125,0.7099999785423279,0.700112521648407,0.700112521648407
335,1.0,0.00010935476166196167,0.00010935476166196167,0.000125,0.699999988079071,0.7022958993911743,0.7022958993911743
336,1.0,0.00010923677473329008,0.00010923677473329008,0.000125,0.699999988079071,0.7041740417480469,0.7041740417480469
337,1.0,0.00010911875142483041,0.00010911875142483041,0.000125,0.7099999785423279,0.7063130140304565,0.7063130140304565
338,1.0,0.00010896859021158889,0.00010896859021158889,0.000125,0.7099999785423279,0.7084284424781799,0.7084284424781799
339,1.0,0.00010885058873100206,0.00010885058873100206,0.000125,0.7099999785423279,0.7104212045669556,0.7104212045669556
340,1.0,0.00010872901475522667,0.00010872901475522667,0.000125,0.7099999785423279,0.7125701904296875,0.7125701904296875
341,1.0,0.00010862174531212077,0.00010862174531212077,0.000125,0.7200000286102295,0.7145953178405762,0.7145953178405762
342,1.0,0.00010848468082258478,0.00010848468082258478,0.000125,0.7200000286102295,0.7167248725891113,0.7167248725891113
343,1.0,0.00010836549336090684,0.00010836549336090684,0.000125,0.7200000286102295,0.7186450958251953,0.7186450958251953
344,1.0,0.000108260617707856,0.000108260617707856,0.000125,0.7200000286102295,0.7207337021827698,0.7207337021827698
345,1.0,0.00010812473192345351,0.00010812473192345351,0.000125,0.7300000190734863,0.7227505445480347,0.7227505445480347
346,1.0,0.00010800077870953828,0.00010800077870953828,0.000125,0.7300000190734863,0.7246763706207275,0.7246763706207275
347,1.0,0.00010785298218252137,0.00010785298218252137,0.000125,0.7300000190734863,0.7264866828918457,0.7264866828918457
348,1.0,0.00010775286500575021,0.00010775286500575021,0.000125,0.7300000190734863,0.72845458984375,0.72845458984375
349,1.0,0.00010764202306745574,0.00010764202306745574,0.000125,0.7300000190734863,0.7304750680923462,0.7304750680923462
350,1.0,0.00010752044909168035,0.00010752044909168035,0.000125,0.7300000190734863,0.7324420809745789,0.7324420809745789
351,1.0,0.00010739052959252149,0.00010739052959252149,0.000125,0.7300000190734863,0.7344589233398438,0.7344589233398438
352,1.0,0.00010726896289270371,0.00010726896289270371,0.000125,0.7300000190734863,0.7363009452819824,0.7363009452819824
353,1.0,0.00010712831863202155,0.00010712831863202155,0.000125,0.7300000190734863,0.737856388092041,0.737856388092041
354,1.0,0.00010703058069339022,0.00010703058069339022,0.000125,0.7300000190734863,0.7390485405921936,0.7390485405921936
355,1.0,0.00010688279144233093,0.00010688279144233093,0.000125,0.7300000190734863,0.7406522631645203,0.7406522631645203
356,1.0,0.0001067588382284157,0.0001067588382284157,0.000125,0.7300000190734863,0.741987407207489,0.741987407207489
357,1.0,0.00010664918227121234,0.00010664918227121234,0.000125,0.7300000190734863,0.7434085011482239,0.7434085011482239
358,1.0,0.00010649065370671451,0.00010649065370671451,0.000125,0.7200000286102295,0.7443907856941223,0.7443907856941223
359,1.0,0.00010636910155881196,0.00010636910155881196,0.000125,0.7200000286102295,0.7455653548240662,0.7455653548240662
360,1.0,0.00010626896255416796,0.00010626896255416796,1e-04,0.7200000286102295,0.7470552921295166,0.7470552921295166
361,1.0,0.00010616645886329934,0.00010616645886329934,1e-04,0.7200000286102295,0.7484591603279114,0.7484591603279114
362,1.0,0.0001060675349435769,0.0001060675349435769,1e-04,0.7200000286102295,0.7495479583740234,0.7495479583740234
363,1.0,0.0001059757632901892,0.0001059757632901892,1e-04,0.7200000286102295,0.7506274580955505,0.7506274580955505
364,1.0,0.00010587801807560027,0.00010587801807560027,1e-04,0.7200000286102295,0.7517422437667847,0.7517422437667847
365,1.0,0.00010576956265140325,0.00010576956265140325,1e-04,0.7200000286102295,0.7530291676521301,0.7530291676521301
366,1.0,0.0001056754044839181,0.0001056754044839181,1e-04,0.7200000286102295,0.7540228962898254,0.7540228962898254
367,1.0,0.00010559793736319989,0.00010559793736319989,1e-04,0.7200000286102295,0.755409836769104,0.755409836769104
368,1.0,0.00010550138540565968,0.00010550138540565968,1e-04,0.7200000286102295,0.7562770843505859,0.7562770843505859
369,1.0,0.00010541676601860672,0.00010541676601860672,1e-04,0.7200000286102295,0.7571929693222046,0.7571929693222046
370,1.0,0.00010529996507102624,0.00010529996507102624,1e-04,0.7200000286102295,0.7585238814353943,0.7585238814353943
371,1.0,0.00010518912313273177,0.00010518912313273177,1e-04,0.7200000286102295,0.7594642043113708,0.7594642043113708
372,1.0,0.00010510925494600087,0.00010510925494600087,1e-04,0.7200000286102295,0.7602986097335815,0.7602986097335815
373,1.0,0.00010500914504518732,0.00010500914504518732,1e-04,0.7200000286102295,0.7613924145698547,0.7613924145698547
374,1.0,0.0001049221318680793,0.0001049221318680793,1e-04,0.7200000286102295,0.7619514465332031,0.7619514465332031
375,1.0,0.0001048148624249734,0.0001048148624249734,1e-04,0.7200000286102295,0.7625124454498291,0.7625124454498291
376,1.0,0.00010473262227606028,0.00010473262227606028,1e-04,0.7300000190734863,0.7629209160804749,0.7629209160804749
377,1.0,0.00010463489161338657,0.00010463489161338657,1e-04,0.7300000190734863,0.7638498544692993,0.7638498544692993
378,1.0,0.00010455263691255823,0.00010455263691255823,1e-04,0.7300000190734863,0.7639361619949341,0.7639361619949341
379,1.0,0.00010443941573612392,0.00010443941573612392,1e-04,0.7300000190734863,0.7642922401428223,0.7642922401428223
380,1.0,0.00010434405703563243,0.00010434405703563243,1e-04,0.7400000095367432,0.7647019028663635,0.7647019028663635
381,1.0,0.00010425109212519601,0.00010425109212519601,1e-04,0.7400000095367432,0.7648890018463135,0.7648890018463135
382,1.0,0.00010414740245323628,0.00010414740245323628,1e-04,0.7400000095367432,0.76519775390625,0.76519775390625
383,1.0,0.00010405443754279986,0.00010405443754279986,1e-04,0.75,0.7656558156013489,0.7656558156013489
384,1.0,0.00010393523552920669,0.00010393523552920669,1e-04,0.75,0.7658593654632568,0.7658593654632568
385,1.0,0.00010383869812358171,0.00010383869812358171,1e-04,0.75,0.7660585641860962,0.7660585641860962
386,1.0,0.00010374573321314529,0.00010374573321314529,1e-04,0.75,0.7663931250572205,0.7663931250572205
387,1.0,0.00010366707283537835,0.00010366707283537835,1e-04,0.75,0.7661798596382141,0.7661798596382141
388,1.0,0.00010356098209740594,0.00010356098209740594,1e-04,0.75,0.7662345767021179,0.7662345767021179
389,1.0,0.00010347158968215808,0.00010347158968215808,1e-04,0.75,0.7664234638214111,0.7664234638214111
390,1.0,0.00010336432023905218,0.00010336432023905218,1e-04,0.75,0.766312837600708,0.766312837600708
391,1.0,0.00010328446660423651,0.00010328446660423651,1e-04,0.75,0.7662200331687927,0.7662200331687927
392,1.0,0.00010320104047423229,0.00010320104047423229,1e-04,0.75,0.7659844160079956,0.7659844160079956
393,1.0,0.00010308899800293148,0.00010308899800293148,1e-04,0.75,0.7655340433120728,0.7655340433120728
394,1.0,0.00010300198482582346,0.00010300198482582346,1e-04,0.75,0.7652647495269775,0.7652647495269775
395,1.0,0.00010291497892467305,0.00010291497892467305,1e-04,0.75,0.7648915648460388,0.7648915648460388
396,1.0,0.00010282916628057137,0.00010282916628057137,1e-04,0.75,0.7647998332977295,0.7647998332977295
397,1.0,0.00010273024236084893,0.00010273024236084893,1e-04,0.75,0.7644132375717163,0.7644132375717163
398,1.0,0.0001026575337164104,0.0001026575337164104,1e-04,0.75,0.7640039324760437,0.7640039324760437
399,1.0,0.00010255979577777907,0.00010255979577777907,1e-04,0.75,0.7634921073913574,0.7634921073913574
400,1.0,0.00010245610610581934,0.00010245610610581934,1e-04,0.75,0.7628944516181946,0.7628944516181946
401,1.0,0.00010235717491013929,0.00010235717491013929,1e-04,0.75,0.7622367739677429,0.7622367739677429
402,1.0,0.00010226062295259908,0.00010226062295259908,1e-04,0.75,0.7616906762123108,0.7616906762123108
403,1.0,0.00010214263602392748,0.00010214263602392748,1e-04,0.75,0.7608004212379456,0.7608004212379456
404,1.0,0.00010203775309491903,0.00010203775309491903,1e-04,0.75,0.7600628733634949,0.7600628733634949
405,1.0,0.00010194477363256738,0.00010194477363256738,1e-04,0.75,0.7591243982315063,0.7591243982315063
406,1.0,0.00010185180872213095,0.00010185180872213095,1e-04,0.75,0.7581748366355896,0.7581748366355896
407,1.0,0.00010177910007769242,0.00010177910007769242,1e-04,0.75,0.7572681307792664,0.7572681307792664
408,1.0,0.00010167421714868397,0.00010167421714868397,1e-04,0.7599999904632568,0.7562753558158875,0.7562753558158875
409,1.0,0.00010159317753277719,0.00010159317753277719,1e-04,0.7599999904632568,0.7549835443496704,0.7549835443496704
410,1.0,0.00010148828005185351,0.00010148828005185351,1e-04,0.7599999904632568,0.7540666460990906,0.7540666460990906
411,1.0,0.00010138458310393617,0.00010138458310393617,1e-04,0.75,0.7529383301734924,0.7529383301734924
412,1.0,0.00010129756992682815,0.00010129756992682815,1e-04,0.7599999904632568,0.7516762614250183,0.7516762614250183
413,1.0,0.00010119150101672858,0.00010119150101672858,1e-04,0.7599999904632568,0.7503733038902283,0.7503733038902283
414,1.0,0.00010108780406881124,0.00010108780406881124,1e-04,0.7599999904632568,0.749082624912262,0.749082624912262
415,1.0,0.00010098649363499135,0.00010098649363499135,1e-04,0.7599999904632568,0.7478660345077515,0.7478660345077515
416,1.0,0.00010089114221045747,0.00010089114221045747,1e-04,0.7599999904632568,0.7465437054634094,0.7465437054634094
417,1.0,0.00010080055653816089,0.00010080055653816089,1e-04,0.75,0.7451229691505432,0.7451229691505432
418,1.0,0.00010071235010400414,0.00010071235010400414,1e-04,0.75,0.7436673045158386,0.7436673045158386
419,1.0,0.00010060985368909314,0.00010060985368909314,1e-04,0.75,0.7424809336662292,0.7424809336662292
420,1.0,0.00010050735727418214,0.00010050735727418214,1e-04,0.75,0.7409539222717285,0.7409539222717285
421,1.0,0.00010040126653620973,0.00010040126653620973,1e-04,0.75,0.7392499446868896,0.7392499446868896
422,1.0,0.00010033213766291738,0.00010033213766291738,1e-04,0.75,0.7376012206077576,0.7376012206077576
423,1.0,0.00010023797949543223,0.00010023797949543223,1e-04,0.75,0.7361398339271545,0.7361398339271545
424,1.0,0.00010015692532761022,0.00010015692532761022,1e-04,0.7599999904632568,0.7343344688415527,0.7343344688415527
425,1.0,0.00010004726937040687,0.00010004726937040687,1e-04,0.7599999904632568,0.7323848605155945,0.7323848605155945
426,1.0,9.996860171668231e-05,9.996860171668231e-05,1e-04,0.7599999904632568,0.7304793000221252,0.7304793000221252
427,1.0,9.986967779695988e-05,9.986967779695988e-05,1e-04,0.7599999904632568,0.7286959290504456,0.7286959290504456
428,1.0,9.976479486795142e-05,9.976479486795142e-05,1e-04,0.7599999904632568,0.7267971634864807,0.7267971634864807
429,1.0,9.967181540559977e-05,9.967181540559977e-05,1e-04,0.7599999904632568,0.724470317363739,0.724470317363739
430,1.0,9.959792805602774e-05,9.959792805602774e-05,1e-04,0.7599999904632568,0.7225661277770996,0.7225661277770996
431,1.0,9.947992657544091e-05,9.947992657544091e-05,1e-04,0.7699999809265137,0.7205334305763245,0.7205334305763245
432,1.0,9.939529991243035e-05,9.939529991243035e-05,1e-04,0.7699999809265137,0.7183478474617004,0.7183478474617004
433,1.0,9.931783279171214e-05,9.931783279171214e-05,1e-04,0.7699999809265137,0.7160040140151978,0.7160040140151978
434,1.0,9.922366734826937e-05,9.922366734826937e-05,1e-04,0.7699999809265137,0.7138052582740784,0.7138052582740784
435,1.0,9.91283159237355e-05,9.91283159237355e-05,1e-04,0.7699999809265137,0.7115437388420105,0.7115437388420105
436,1.0,9.904606849886477e-05,9.904606849886477e-05,1e-04,0.7699999809265137,0.7089500427246094,0.7089500427246094
437,1.0,9.8965028882958e-05,9.8965028882958e-05,1e-04,0.7699999809265137,0.7065043449401855,0.7065043449401855
438,1.0,9.886371117318049e-05,9.886371117318049e-05,1e-04,0.7799999713897705,0.70391845703125,0.70391845703125
439,1.0,9.875883552012965e-05,9.875883552012965e-05,1e-04,0.7799999713897705,0.7015011310577393,0.7015011310577393
440,1.0,9.867658809525892e-05,9.867658809525892e-05,1e-04,0.7799999713897705,0.6991149187088013,0.6991149187088013
441,1.0,9.857646364253014e-05,9.857646364253014e-05,1e-04,0.7799999713897705,0.6964612007141113,0.6964612007141113
442,1.0,9.847395995166153e-05,9.847395995166153e-05,1e-04,0.7799999713897705,0.6940920352935791,0.6940920352935791
443,1.0,9.838814003160223e-05,9.838814003160223e-05,1e-04,0.7799999713897705,0.6916307210922241,0.6916307210922241
444,1.0,9.831305942498147e-05,9.831305942498147e-05,1e-04,0.7799999713897705,0.6890571117401123,0.6890571117401123
445,1.0,9.820101695368066e-05,9.820101695368066e-05,1e-04,0.7799999713897705,0.686512291431427,0.686512291431427
446,1.0,9.81104385573417e-05,9.81104385573417e-05,1e-04,0.7799999713897705,0.6840637922286987,0.6840637922286987
447,1.0,9.802103159017861e-05,9.802103159017861e-05,1e-04,0.7799999713897705,0.681419312953949,0.681419312953949
448,1.0,9.791614138521254e-05,9.791614138521254e-05,1e-04,0.7799999713897705,0.6788334846496582,0.6788334846496582
449,1.0,9.782079723663628e-05,9.782079723663628e-05,1e-04,0.7900000214576721,0.6757303476333618,0.6757303476333618
450,1.0,9.772305202204734e-05,9.772305202204734e-05,1e-04,0.800000011920929,0.6727695465087891,0.6727695465087891
451,1.0,9.76443916442804e-05,9.76443916442804e-05,1e-04,0.800000011920929,0.6698648929595947,0.6698648929595947
452,1.0,9.755024075275287e-05,9.755024075275287e-05,1e-04,0.800000011920929,0.6671096086502075,0.6671096086502075
453,1.0,9.744415729073808e-05,9.744415729073808e-05,1e-04,0.800000011920929,0.6643499732017517,0.6643499732017517
454,1.0,9.734999184729531e-05,9.734999184729531e-05,1e-04,0.800000011920929,0.661693811416626,0.661693811416626
455,1.0,9.729278099257499e-05,9.729278099257499e-05,1e-04,0.800000011920929,0.6589466333389282,0.6589466333389282
456,1.0,9.719861554913223e-05,9.719861554913223e-05,1e-04,0.800000011920929,0.6559994220733643,0.6559994220733643
457,1.0,9.71056506386958e-05,9.71056506386958e-05,1e-04,0.800000011920929,0.653217077255249,0.653217077255249
458,1.0,9.701387898530811e-05,9.701387898530811e-05,1e-04,0.800000011920929,0.6505352258682251,0.6505352258682251
459,1.0,9.691136801848188e-05,9.691136801848188e-05,1e-04,0.800000011920929,0.6476480960845947,0.6476480960845947
460,1.0,9.683748066890985e-05,9.683748066890985e-05,1e-04,0.800000011920929,0.6449106335639954,0.6449106335639954
461,1.0,9.673019667388871e-05,9.673019667388871e-05,1e-04,0.800000011920929,0.6420851349830627,0.6420851349830627
462,1.0,9.662054799264297e-05,9.662054799264297e-05,1e-04,0.800000011920929,0.639261782169342,0.639261782169342
463,1.0,9.65204308158718e-05,9.65204308158718e-05,1e-04,0.800000011920929,0.6362695693969727,0.6362695693969727
464,1.0,9.643579687690362e-05,9.643579687690362e-05,1e-04,0.800000011920929,0.6335340738296509,0.6335340738296509
465,1.0,9.635117021389306e-05,9.635117021389306e-05,1e-04,0.800000011920929,0.63094162940979,0.63094162940979
466,1.0,9.624985978007317e-05,9.624985978007317e-05,1e-04,0.800000011920929,0.6281514167785645,0.6281514167785645
467,1.0,9.615689486963674e-05,9.615689486963674e-05,1e-04,0.800000011920929,0.6255228519439697,0.6255228519439697
468,1.0,9.605675586499274e-05,9.605675586499274e-05,1e-04,0.800000011920929,0.6228552460670471,0.6228552460670471
469,1.0,9.598406177246943e-05,9.598406177246943e-05,1e-04,0.800000011920929,0.620332658290863,0.620332658290863
470,1.0,9.588871034793556e-05,9.588871034793556e-05,1e-04,0.800000011920929,0.6177245378494263,0.6177245378494263
471,1.0,9.580408368492499e-05,9.580408368492499e-05,1e-04,0.800000011920929,0.6152967810630798,0.6152967810630798
472,1.0,9.570873226039112e-05,9.570873226039112e-05,1e-04,0.800000011920929,0.6127319931983948,0.6127319931983948
473,1.0,9.560741455061361e-05,9.560741455061361e-05,1e-04,0.800000011920929,0.6101155877113342,0.6101155877113342
474,1.0,9.551325638312846e-05,9.551325638312846e-05,1e-04,0.800000011920929,0.6077326536178589,0.6077326536178589
475,1.0,9.543102351017296e-05,9.543102351017296e-05,1e-04,0.8100000023841858,0.605226993560791,0.605226993560791
476,1.0,9.534877608530223e-05,9.534877608530223e-05,1e-04,0.8199999928474426,0.6025440692901611,0.6025440692901611
477,1.0,9.525939094601199e-05,9.525939094601199e-05,1e-04,0.8199999928474426,0.6000365614891052,0.6000365614891052
478,1.0,9.517594298813492e-05,9.517594298813492e-05,1e-04,0.8199999928474426,0.5974937677383423,0.5974937677383423
479,1.0,9.508059156360105e-05,9.508059156360105e-05,1e-04,0.8199999928474426,0.595277726650238,0.595277726650238
480,1.0,9.499357838649303e-05,9.499357838649303e-05,1e-04,0.8199999928474426,0.5926508903503418,0.5926508903503418
481,1.0,9.491252421867102e-05,9.491252421867102e-05,1e-04,0.8199999928474426,0.590359091758728,0.590359091758728
482,1.0,9.480526932748035e-05,9.480526932748035e-05,1e-04,0.8199999928474426,0.5880948901176453,0.5880948901176453
483,1.0,9.472182136960328e-05,9.472182136960328e-05,1e-04,0.8199999928474426,0.5858768224716187,0.5858768224716187
484,1.0,9.462170419283211e-05,9.462170419283211e-05,1e-04,0.8199999928474426,0.5836514830589294,0.5836514830589294
485,1.0,9.45442370721139e-05,9.45442370721139e-05,1e-04,0.8199999928474426,0.581653892993927,0.581653892993927
486,1.0,9.445603063795716e-05,9.445603063795716e-05,1e-04,0.8199999928474426,0.5794589519500732,0.5794589519500732
487,1.0,9.43666382227093e-05,9.43666382227093e-05,1e-04,0.8199999928474426,0.5775231122970581,0.5775231122970581
488,1.0,9.427007898921147e-05,9.427007898921147e-05,1e-04,0.8199999928474426,0.5755495429039001,0.5755495429039001
489,1.0,9.419023263035342e-05,9.419023263035342e-05,1e-04,0.8199999928474426,0.5735275745391846,0.5735275745391846
490,1.0,9.40626923693344e-05,9.40626923693344e-05,1e-04,0.8299999833106995,0.5716428756713867,0.5716428756713867
491,1.0,9.398998372489586e-05,9.398998372489586e-05,1e-04,0.8299999833106995,0.5698342323303223,0.5698342323303223
492,1.0,9.390059858560562e-05,9.390059858560562e-05,1e-04,0.8299999833106995,0.568183183670044,0.568183183670044
493,1.0,9.378497634315863e-05,9.378497634315863e-05,1e-04,0.8299999833106995,0.5664454102516174,0.5664454102516174
494,1.0,9.367055463371798e-05,9.367055463371798e-05,1e-04,0.8299999833106995,0.5648142099380493,0.5648142099380493
495,1.0,9.358235547551885e-05,9.358235547551885e-05,1e-04,0.8299999833106995,0.5631894469261169,0.5631894469261169
496,1.0,9.350845357403159e-05,9.350845357403159e-05,1e-04,0.8299999833106995,0.56154865026474,0.56154865026474
497,1.0,9.342026169179007e-05,9.342026169179007e-05,1e-04,0.8299999833106995,0.5598453879356384,0.5598453879356384
498,1.0,9.334159403806552e-05,9.334159403806552e-05,1e-04,0.8299999833106995,0.5581974387168884,0.5581974387168884
499,1.0,9.324384882347658e-05,9.324384882347658e-05,1e-04,0.8299999833106995,0.5566496849060059,0.5566496849060059
500,1.0,9.316637442680076e-05,9.316637442680076e-05,1e-04,0.8299999833106995,0.555212676525116,0.555212676525116
501,1.0,9.309367305831984e-05,9.309367305831984e-05,1e-04,0.8299999833106995,0.5537979006767273,0.5537979006767273
502,1.0,9.299235534854233e-05,9.299235534854233e-05,1e-04,0.8299999833106995,0.5522363185882568,0.5522363185882568
503,1.0,9.289223089581355e-05,9.289223089581355e-05,1e-04,0.8299999833106995,0.5506712198257446,0.5506712198257446
504,1.0,9.280523227062076e-05,9.280523227062076e-05,1e-04,0.8399999737739563,0.5493912696838379,0.5493912696838379
505,1.0,9.270630107494071e-05,9.270630107494071e-05,1e-04,0.8399999737739563,0.548175573348999,0.548175573348999
506,1.0,9.262881940230727e-05,9.262881940230727e-05,1e-04,0.8399999737739563,0.5468567609786987,0.5468567609786987
507,1.0,9.253466851077974e-05,9.253466851077974e-05,1e-04,0.8399999737739563,0.5456262826919556,0.5456262826919556
508,1.0,9.244049579137936e-05,9.244049579137936e-05,1e-04,0.8399999737739563,0.5443824529647827,0.5443824529647827
509,1.0,9.237732592737302e-05,9.237732592737302e-05,1e-04,0.8500000238418579,0.5433136820793152,0.5433136820793152
510,1.0,9.228792623616755e-05,9.228792623616755e-05,1e-04,0.8500000238418579,0.5421833992004395,0.5421833992004395
511,1.0,9.222237713402137e-05,9.222237713402137e-05,1e-04,0.8399999737739563,0.5409760475158691,0.5409760475158691
512,1.0,9.211152791976929e-05,9.211152791976929e-05,1e-04,0.8399999737739563,0.5400269031524658,0.5400269031524658
513,1.0,9.202810178976506e-05,9.202810178976506e-05,1e-04,0.8399999737739563,0.5389633178710938,0.5389633178710938
514,1.0,9.193154255626723e-05,9.193154255626723e-05,1e-04,0.8500000238418579,0.537874698638916,0.537874698638916
515,1.0,9.185645467368886e-05,9.185645467368886e-05,1e-04,0.8500000238418579,0.536979079246521,0.536979079246521
516,1.0,9.176109597319737e-05,9.176109597319737e-05,1e-04,0.8500000238418579,0.5358694195747375,0.5358694195747375
517,1.0,9.165264054900035e-05,9.165264054900035e-05,1e-04,0.8500000238418579,0.5350616574287415,0.5350616574287415
518,1.0,9.15537093533203e-05,9.15537093533203e-05,1e-04,0.8500000238418579,0.5342202186584473,0.5342202186584473
519,1.0,9.145955846179277e-05,9.145955846179277e-05,1e-04,0.8399999737739563,0.5333746671676636,0.5333746671676636
520,1.0,9.137135202763602e-05,9.137135202763602e-05,1e-04,0.8399999737739563,0.5324895977973938,0.5324895977973938
521,1.0,9.126527584157884e-05,9.126527584157884e-05,1e-04,0.8399999737739563,0.5315937399864197,0.5315937399864197
522,1.0,9.118182788370177e-05,9.118182788370177e-05,1e-04,0.8399999737739563,0.5309946537017822,0.5309946537017822
523,1.0,9.110316750593483e-05,9.110316750593483e-05,1e-04,0.8399999737739563,0.5302587747573853,0.5302587747573853
524,1.0,9.101018076762557e-05,9.101018076762557e-05,1e-04,0.8399999737739563,0.529636561870575,0.529636561870575
525,1.0,9.093748667510226e-05,9.093748667510226e-05,1e-04,0.8399999737739563,0.5289385318756104,0.5289385318756104
526,1.0,9.083140321308747e-05,9.083140321308747e-05,1e-04,0.8399999737739563,0.5284456014633179,0.5284456014633179
527,1.0,9.074439003597945e-05,9.074439003597945e-05,1e-04,0.8399999737739563,0.527754008769989,0.527754008769989
528,1.0,9.064903133548796e-05,9.064903133548796e-05,1e-04,0.8399999737739563,0.527326226234436,0.527326226234436
529,1.0,9.057036368176341e-05,9.057036368176341e-05,1e-04,0.8500000238418579,0.5267701148986816,0.5267701148986816
530,1.0,9.049408981809393e-05,9.049408981809393e-05,1e-04,0.8500000238418579,0.5263575911521912,0.5263575911521912
531,1.0,9.037966810865328e-05,9.037966810865328e-05,1e-04,0.8500000238418579,0.5258756875991821,0.5258756875991821
532,1.0,9.028668864630163e-05,9.028668864630163e-05,1e-04,0.8500000238418579,0.525455892086029,0.525455892086029
533,1.0,9.01937237358652e-05,9.01937237358652e-05,1e-04,0.8600000143051147,0.5250309109687805,0.5250309109687805
534,1.0,9.009837231133133e-05,9.009837231133133e-05,1e-04,0.8600000143051147,0.5245975255966187,0.5245975255966187
535,1.0,9.001374564832076e-05,9.001374564832076e-05,1e-04,0.8600000143051147,0.5243063569068909,0.5243063569068909
536,1.0,8.994341624202207e-05,8.994341624202207e-05,1e-04,0.8600000143051147,0.5240011215209961,0.5240011215209961
537,1.0,8.984090527519584e-05,8.984090527519584e-05,1e-04,0.8600000143051147,0.5238054990768433,0.5238054990768433
538,1.0,8.975509263109416e-05,8.975509263109416e-05,1e-04,0.8600000143051147,0.5235938429832458,0.5235938429832458
539,1.0,8.967761095846072e-05,8.967761095846072e-05,1e-04,0.8600000143051147,0.5233848094940186,0.5233848094940186
540,1.0,8.958226680988446e-05,8.958226680988446e-05,1e-04,0.8600000143051147,0.5231757164001465,0.5231757164001465
541,1.0,8.948452887125313e-05,8.948452887125313e-05,1e-04,0.8600000143051147,0.5228995680809021,0.5228995680809021
542,1.0,8.941301348386332e-05,8.941301348386332e-05,1e-04,0.8600000143051147,0.5228603482246399,0.5228603482246399
543,1.0,8.930454350775108e-05,8.930454350775108e-05,1e-04,0.8600000143051147,0.5227330923080444,0.5227330923080444
544,1.0,8.92187308636494e-05,8.92187308636494e-05,1e-04,0.8600000143051147,0.5225937366485596,0.5225937366485596
545,1.0,8.914244244806468e-05,8.914244244806468e-05,1e-04,0.8600000143051147,0.5224111080169678,0.5224111080169678
546,1.0,8.906258153729141e-05,8.906258153729141e-05,1e-04,0.8600000143051147,0.5222750306129456,0.5222750306129456
547,1.0,8.897199586499482e-05,8.897199586499482e-05,1e-04,0.8600000143051147,0.5222119092941284,0.5222119092941284
548,1.0,8.890168101061136e-05,8.890168101061136e-05,1e-04,0.8600000143051147,0.5222467184066772,0.5222467184066772
549,1.0,8.882061229087412e-05,8.882061229087412e-05,1e-04,0.8600000143051147,0.5222996473312378,0.5222996473312378
550,1.0,8.872288890415803e-05,8.872288890415803e-05,1e-04,0.8600000143051147,0.5223212242126465,0.5223212242126465
551,1.0,8.864897972671315e-05,8.864897972671315e-05,1e-04,0.8600000143051147,0.5224673748016357,0.5224673748016357
552,1.0,8.856196654960513e-05,8.856196654960513e-05,1e-04,0.8600000143051147,0.5225993990898132,0.5225993990898132
553,1.0,8.84785404196009e-05,8.84785404196009e-05,1e-04,0.8700000047683716,0.5227333307266235,0.5227333307266235
554,1.0,8.837483619572595e-05,8.837483619572595e-05,1e-04,0.8700000047683716,0.522831916809082,0.522831916809082
555,1.0,8.830809383653104e-05,8.830809383653104e-05,1e-04,0.8700000047683716,0.5230221748352051,0.5230221748352051
556,1.0,8.821870142128319e-05,8.821870142128319e-05,1e-04,0.8700000047683716,0.523224949836731,0.523224949836731
557,1.0,8.811499719740823e-05,8.811499719740823e-05,1e-04,0.8700000047683716,0.5234490036964417,0.5234490036964417
558,1.0,8.803753007669002e-05,8.803753007669002e-05,1e-04,0.8700000047683716,0.5236386656761169,0.5236386656761169
559,1.0,8.79469298524782e-05,8.79469298524782e-05,1e-04,0.8700000047683716,0.5239659547805786,0.5239659547805786
560,1.0,8.787304250290617e-05,8.787304250290617e-05,1e-04,0.8700000047683716,0.524130642414093,0.524130642414093
561,1.0,8.776218601269647e-05,8.776218601269647e-05,1e-04,0.8700000047683716,0.5242595076560974,0.5242595076560974
562,1.0,8.76763733685948e-05,8.76763733685948e-05,1e-04,0.8700000047683716,0.5245102047920227,0.5245102047920227
563,1.0,8.758340118220076e-05,8.758340118220076e-05,1e-04,0.8700000047683716,0.5247071385383606,0.5247071385383606
564,1.0,8.750471897656098e-05,8.750471897656098e-05,1e-04,0.8700000047683716,0.5249776244163513,0.5249776244163513
565,1.0,8.74236793606542e-05,8.74236793606542e-05,1e-04,0.8700000047683716,0.5252323746681213,0.5252323746681213
566,1.0,8.733786671655253e-05,8.733786671655253e-05,1e-04,0.8700000047683716,0.5254675149917603,0.5254675149917603
567,1.0,8.723416249267757e-05,8.723416249267757e-05,1e-04,0.8700000047683716,0.5256826281547546,0.5256826281547546
568,1.0,8.716860611457378e-05,8.716860611457378e-05,1e-04,0.8700000047683716,0.5260295271873474,0.5260295271873474
569,1.0,8.706609514774755e-05,8.706609514774755e-05,1e-04,0.8700000047683716,0.5262195467948914,0.5262195467948914
570,1.0,8.698743476998061e-05,8.698743476998061e-05,1e-04,0.8700000047683716,0.5266095399856567,0.5266095399856567
571,1.0,8.689326932653785e-05,8.689326932653785e-05,1e-04,0.8700000047683716,0.5269379615783691,0.5269379615783691
572,1.0,8.681698818691075e-05,8.681698818691075e-05,1e-04,0.8700000047683716,0.5272619724273682,0.5272619724273682
573,1.0,8.674547279952094e-05,8.674547279952094e-05,1e-04,0.8700000047683716,0.5276213884353638,0.5276213884353638
574,1.0,8.665012137498707e-05,8.665012137498707e-05,1e-04,0.8700000047683716,0.527916431427002,0.527916431427002
575,1.0,8.658932347316295e-05,8.658932347316295e-05,1e-04,0.8700000047683716,0.5282492637634277,0.5282492637634277
576,1.0,8.650231757201254e-05,8.650231757201254e-05,1e-04,0.8700000047683716,0.5287026762962341,0.5287026762962341
577,1.0,8.641173189971596e-05,8.641173189971596e-05,1e-04,0.8700000047683716,0.5290257930755615,0.5290257930755615
578,1.0,8.634378900751472e-05,8.634378900751472e-05,1e-04,0.8700000047683716,0.5292829275131226,0.5292829275131226
579,1.0,8.626274939160794e-05,8.626274939160794e-05,1e-04,0.8700000047683716,0.5297181606292725,0.5297181606292725
580,1.0,8.617930143373087e-05,8.617930143373087e-05,1e-04,0.8700000047683716,0.5302509069442749,0.5302509069442749
581,1.0,8.607799099991098e-05,8.607799099991098e-05,1e-04,0.8700000047683716,0.5307101607322693,0.5307101607322693
582,1.0,8.597906708018854e-05,8.597906708018854e-05,1e-04,0.8700000047683716,0.5311436653137207,0.5311436653137207
583,1.0,8.590992365498096e-05,8.590992365498096e-05,1e-04,0.8700000047683716,0.5316968560218811,0.5316968560218811
584,1.0,8.580265421187505e-05,8.580265421187505e-05,1e-04,0.8799999952316284,0.5321643352508545,0.5321643352508545
585,1.0,8.57239865581505e-05,8.57239865581505e-05,1e-04,0.8799999952316284,0.5327699780464172,0.5327699780464172
586,1.0,8.562982839066535e-05,8.562982839066535e-05,1e-04,0.8799999952316284,0.5332202315330505,0.5332202315330505
587,1.0,8.553446241421625e-05,8.553446241421625e-05,1e-04,0.8799999952316284,0.5336729884147644,0.5336729884147644
588,1.0,8.54498430271633e-05,8.54498430271633e-05,1e-04,0.8799999952316284,0.5344002842903137,0.5344002842903137
589,1.0,8.537713438272476e-05,8.537713438272476e-05,1e-04,0.8799999952316284,0.535017728805542,0.535017728805542
590,1.0,8.529965998604894e-05,8.529965998604894e-05,1e-04,0.8799999952316284,0.5357454419136047,0.5357454419136047
591,1.0,8.521383279003203e-05,8.521383279003203e-05,1e-04,0.8799999952316284,0.5363679528236389,0.5363679528236389
592,1.0,8.515185618307441e-05,8.515185618307441e-05,1e-04,0.8799999952316284,0.5369250178337097,0.5369250178337097
593,1.0,8.50541255204007e-05,8.50541255204007e-05,1e-04,0.8799999952316284,0.5376387238502502,0.5376387238502502
594,1.0,8.497187081957236e-05,8.497187081957236e-05,1e-04,0.8799999952316284,0.538426399230957,0.538426399230957
595,1.0,8.488963067065924e-05,8.488963067065924e-05,1e-04,0.8799999952316284,0.5391027927398682,0.5391027927398682
596,1.0,8.480023825541139e-05,8.480023825541139e-05,1e-04,0.8799999952316284,0.5396940112113953,0.5396940112113953
597,1.0,8.472395711578429e-05,8.472395711578429e-05,1e-04,0.8799999952316284,0.5402370095252991,0.5402370095252991
598,1.0,8.462143887300044e-05,8.462143887300044e-05,1e-04,0.8799999952316284,0.5407982468605042,0.5407982468605042
599,1.0,8.45332324388437e-05,8.45332324388437e-05,1e-04,0.8799999952316284,0.5414655804634094,0.5414655804634094
600,1.0,8.445219282293692e-05,8.445219282293692e-05,1e-04,0.8799999952316284,0.5418221950531006,0.5418221950531006
601,1.0,8.435087511315942e-05,8.435087511315942e-05,1e-04,0.8799999952316284,0.5422617793083191,0.5422617793083191
602,1.0,8.427102147834376e-05,8.427102147834376e-05,1e-04,0.8799999952316284,0.5429123640060425,0.5429123640060425
603,1.0,8.418520155828446e-05,8.418520155828446e-05,1e-04,0.8799999952316284,0.5432618856430054,0.5432618856430054
604,1.0,8.410891314269975e-05,8.410891314269975e-05,1e-04,0.8799999952316284,0.5438754558563232,0.5438754558563232
605,1.0,8.402547973673791e-05,8.402547973673791e-05,1e-04,0.8799999952316284,0.5443875193595886,0.5443875193595886
606,1.0,8.395038457820192e-05,8.395038457820192e-05,1e-04,0.8700000047683716,0.5448521971702576,0.5448521971702576
607,1.0,8.386456465814263e-05,8.386456465814263e-05,1e-04,0.8700000047683716,0.5452360510826111,0.5452360510826111
608,1.0,8.379900828003883e-05,8.379900828003883e-05,1e-04,0.8700000047683716,0.5457425117492676,0.5457425117492676
609,1.0,8.37262996356003e-05,8.37262996356003e-05,1e-04,0.8700000047683716,0.5464373230934143,0.5464373230934143
610,1.0,8.3640479715541e-05,8.3640479715541e-05,1e-04,0.8700000047683716,0.5466840267181396,0.5466840267181396
611,1.0,8.35534738143906e-05,8.35534738143906e-05,1e-04,0.8700000047683716,0.5472115874290466,0.5472115874290466
612,1.0,8.347004040842876e-05,8.347004040842876e-05,1e-04,0.8700000047683716,0.5476611256599426,0.5476611256599426
613,1.0,8.339493797393516e-05,8.339493797393516e-05,1e-04,0.8700000047683716,0.5480072498321533,0.5480072498321533
614,1.0,8.329839329235256e-05,8.329839329235256e-05,1e-04,0.8700000047683716,0.5483925938606262,0.5483925938606262
615,1.0,8.323642396135256e-05,8.323642396135256e-05,1e-04,0.8700000047683716,0.548907458782196,0.548907458782196
616,1.0,8.315416926052421e-05,8.315416926052421e-05,1e-04,0.8700000047683716,0.5490602850914001,0.5490602850914001
617,1.0,8.305405208375305e-05,8.305405208375305e-05,1e-04,0.8700000047683716,0.5496236681938171,0.5496236681938171
618,1.0,8.295988664031029e-05,8.295988664031029e-05,1e-04,0.8700000047683716,0.550128698348999,0.550128698348999
619,1.0,8.288121898658574e-05,8.288121898658574e-05,1e-04,0.8700000047683716,0.5505965948104858,0.5505965948104858
620,1.0,8.280255133286119e-05,8.280255133286119e-05,1e-04,0.8700000047683716,0.5509641766548157,0.5509641766548157
621,1.0,8.272269769804552e-05,8.272269769804552e-05,1e-04,0.8700000047683716,0.5514808893203735,0.5514808893203735
622,1.0,8.26392715680413e-05,8.26392715680413e-05,1e-04,0.8700000047683716,0.551871120929718,0.551871120929718
623,1.0,8.256178261945024e-05,8.256178261945024e-05,1e-04,0.8700000047683716,0.5524297952651978,0.5524297952651978
624,1.0,8.246523066191003e-05,8.246523066191003e-05,1e-04,0.8700000047683716,0.5529651045799255,0.5529651045799255
625,1.0,8.23972950456664e-05,8.23972950456664e-05,1e-04,0.8700000047683716,0.5534790754318237,0.5534790754318237
626,1.0,8.232458640122786e-05,8.232458640122786e-05,1e-04,0.8700000047683716,0.5540469288825989,0.5540469288825989
627,1.0,8.222684118663892e-05,8.222684118663892e-05,1e-04,0.8700000047683716,0.554531991481781,0.554531991481781
628,1.0,8.216248534154147e-05,8.216248534154147e-05,1e-04,0.8700000047683716,0.5552226901054382,0.5552226901054382
629,1.0,8.206474012695253e-05,8.206474012695253e-05,1e-04,0.8700000047683716,0.5558587908744812,0.5558587908744812
630,1.0,8.20027562440373e-05,8.20027562440373e-05,1e-04,0.8700000047683716,0.5564221143722534,0.5564221143722534
631,1.0,8.191337110474706e-05,8.191337110474706e-05,1e-04,0.8700000047683716,0.5568845868110657,0.5568845868110657
632,1.0,8.18251573946327e-05,8.18251573946327e-05,1e-04,0.8700000047683716,0.5574541687965393,0.5574541687965393
633,1.0,8.175006223609671e-05,8.175006223609671e-05,1e-04,0.8700000047683716,0.5578047037124634,0.5578047037124634
634,1.0,8.166186307789758e-05,8.166186307789758e-05,1e-04,0.8700000047683716,0.5582671761512756,0.5582671761512756
635,1.0,8.15772291389294e-05,8.15772291389294e-05,1e-04,0.8700000047683716,0.5588476061820984,0.5588476061820984
636,1.0,8.149618224706501e-05,8.149618224706501e-05,1e-04,0.8700000047683716,0.5592012405395508,0.5592012405395508
637,1.0,8.142943261191249e-05,8.142943261191249e-05,1e-04,0.8700000047683716,0.5595768690109253,0.5595768690109253
638,1.0,8.131261711241677e-05,8.131261711241677e-05,1e-04,0.8700000047683716,0.5600742101669312,0.5600742101669312
639,1.0,8.124588202917948e-05,8.124588202917948e-05,1e-04,0.8700000047683716,0.5605998039245605,0.5605998039245605
640,1.0,8.116482058539987e-05,8.116482058539987e-05,1e-04,0.8700000047683716,0.5610109567642212,0.5610109567642212
641,1.0,8.107780740829185e-05,8.107780740829185e-05,1e-04,0.8700000047683716,0.5615460276603699,0.5615460276603699
642,1.0,8.100629929685965e-05,8.100629929685965e-05,1e-04,0.8700000047683716,0.5621418952941895,0.5621418952941895
643,1.0,8.092525240499526e-05,8.092525240499526e-05,1e-04,0.8700000047683716,0.5626356601715088,0.5626356601715088
644,1.0,8.085133595159277e-05,8.085133595159277e-05,1e-04,0.8700000047683716,0.5631726980209351,0.5631726980209351
645,1.0,8.076909580267966e-05,8.076909580267966e-05,1e-04,0.8700000047683716,0.5634236335754395,0.5634236335754395
646,1.0,8.068566239671782e-05,8.068566239671782e-05,1e-04,0.8700000047683716,0.5642105340957642,0.5642105340957642
647,1.0,8.057481318246573e-05,8.057481318246573e-05,1e-04,0.8700000047683716,0.56456458568573,0.56456458568573
648,1.0,8.050329051911831e-05,8.050329051911831e-05,1e-04,0.8700000047683716,0.5650306344032288,0.5650306344032288
649,1.0,8.041986438911408e-05,8.041986438911408e-05,1e-04,0.8700000047683716,0.56544029712677,0.56544029712677
650,1.0,8.032211917452514e-05,8.032211917452514e-05,1e-04,0.8700000047683716,0.5658820867538452,0.5658820867538452
651,1.0,8.024105773074552e-05,8.024105773074552e-05,1e-04,0.8700000047683716,0.5662187337875366,0.5662187337875366
652,1.0,8.014810009626672e-05,8.014810009626672e-05,1e-04,0.8700000047683716,0.5668637752532959,0.5668637752532959
653,1.0,8.0071811680682e-05,8.0071811680682e-05,1e-04,0.8700000047683716,0.5673660039901733,0.5673660039901733
654,1.0,8.000386878848076e-05,8.000386878848076e-05,1e-04,0.8700000047683716,0.5679805874824524,0.5679805874824524
655,1.0,7.991089660208672e-05,7.991089660208672e-05,1e-04,0.8700000047683716,0.5684502720832825,0.5684502720832825
656,1.0,7.984534022398293e-05,7.984534022398293e-05,1e-04,0.8700000047683716,0.5690046548843384,0.5690046548843384
657,1.0,7.975713378982618e-05,7.975713378982618e-05,1e-04,0.8700000047683716,0.5696689486503601,0.5696689486503601
658,1.0,7.968442514538765e-05,7.968442514538765e-05,1e-04,0.8700000047683716,0.5701510906219482,0.5701510906219482
659,1.0,7.960815128171816e-05,7.960815128171816e-05,1e-04,0.8700000047683716,0.5706767439842224,0.5706767439842224
660,1.0,7.951039879117161e-05,7.951039879117161e-05,1e-04,0.8700000047683716,0.5711601376533508,0.5711601376533508
661,1.0,7.944007666083053e-05,7.944007666083053e-05,1e-04,0.8700000047683716,0.5714365243911743,0.5714365243911743
662,1.0,7.936259498819709e-05,7.936259498819709e-05,1e-04,0.8700000047683716,0.5720304250717163,0.5720304250717163
663,1.0,7.926367106847465e-05,7.926367106847465e-05,1e-04,0.8700000047683716,0.5724034905433655,0.5724034905433655
664,1.0,7.919692143332213e-05,7.919692143332213e-05,1e-04,0.8700000047683716,0.5730262994766235,0.5730262994766235
665,1.0,7.912063301773742e-05,7.912063301773742e-05,1e-04,0.8700000047683716,0.5734775066375732,0.5734775066375732
666,1.0,7.903243385953829e-05,7.903243385953829e-05,1e-04,0.8700000047683716,0.5742287635803223,0.5742287635803223
667,1.0,7.89621117291972e-05,7.89621117291972e-05,1e-04,0.8700000047683716,0.5747345089912415,0.5747345089912415
668,1.0,7.886436651460826e-05,7.886436651460826e-05,1e-04,0.8700000047683716,0.5753316283226013,0.5753316283226013
669,1.0,7.878569886088371e-05,7.878569886088371e-05,1e-04,0.8700000047683716,0.5757133960723877,0.5757133960723877
670,1.0,7.870583795011044e-05,7.870583795011044e-05,1e-04,0.8700000047683716,0.5761564373970032,0.5761564373970032
671,1.0,7.862478378228843e-05,7.862478378228843e-05,1e-04,0.8700000047683716,0.5768659710884094,0.5768659710884094
672,1.0,7.855446165194735e-05,7.855446165194735e-05,1e-04,0.8700000047683716,0.5773083567619324,0.5773083567619324
673,1.0,7.847340748412535e-05,7.847340748412535e-05,1e-04,0.8700000047683716,0.5779210925102234,0.5779210925102234
674,1.0,7.840308535378426e-05,7.840308535378426e-05,1e-04,0.8700000047683716,0.57842618227005,0.57842618227005
675,1.0,7.832679693819955e-05,7.832679693819955e-05,1e-04,0.8700000047683716,0.5788252353668213,0.5788252353668213
676,1.0,7.8248129284475e-05,7.8248129284475e-05,1e-04,0.8700000047683716,0.5795164704322815,0.5795164704322815
677,1.0,7.817065488779917e-05,7.817065488779917e-05,1e-04,0.8700000047683716,0.5798200368881226,0.5798200368881226
678,1.0,7.807886868249625e-05,7.807886868249625e-05,1e-04,0.8700000047683716,0.580471932888031,0.580471932888031
679,1.0,7.799662853358313e-05,7.799662853358313e-05,1e-04,0.8700000047683716,0.5806452631950378,0.5806452631950378
680,1.0,7.79191468609497e-05,7.79191468609497e-05,1e-04,0.8700000047683716,0.5811446905136108,0.5811446905136108
681,1.0,7.785479101585224e-05,7.785479101585224e-05,1e-04,0.8700000047683716,0.5817081928253174,0.5817081928253174
682,1.0,7.776539132464677e-05,7.776539132464677e-05,1e-04,0.8700000047683716,0.5819358229637146,0.5819358229637146
683,1.0,7.770460797473788e-05,7.770460797473788e-05,1e-04,0.8700000047683716,0.5824428796768188,0.5824428796768188
684,1.0,7.762712630210444e-05,7.762712630210444e-05,1e-04,0.8700000047683716,0.582733690738678,0.582733690738678
685,1.0,7.754131365800276e-05,7.754131365800276e-05,1e-04,0.8700000047683716,0.5829889178276062,0.5829889178276062
686,1.0,7.747217750875279e-05,7.747217750875279e-05,1e-04,0.8700000047683716,0.5835309028625488,0.5835309028625488
687,1.0,7.738516433164477e-05,7.738516433164477e-05,1e-04,0.8700000047683716,0.5837406516075134,0.5837406516075134
688,1.0,7.733271195320413e-05,7.733271195320413e-05,1e-04,0.8700000047683716,0.5841383934020996,0.5841383934020996
689,1.0,7.725285104243085e-05,7.725285104243085e-05,1e-04,0.8700000047683716,0.5843794941902161,0.5843794941902161
690,1.0,7.718014239799231e-05,7.718014239799231e-05,1e-04,0.8700000047683716,0.5845576524734497,0.5845576524734497
691,1.0,7.711340003879741e-05,7.711340003879741e-05,1e-04,0.8700000047683716,0.5849817991256714,0.5849817991256714
692,1.0,7.701804133830592e-05,7.701804133830592e-05,1e-04,0.8700000047683716,0.5850211977958679,0.5850211977958679
693,1.0,7.695367094129324e-05,7.695367094129324e-05,1e-04,0.8700000047683716,0.5852723121643066,0.5852723121643066
694,1.0,7.687619654461741e-05,7.687619654461741e-05,1e-04,0.8700000047683716,0.5855716466903687,0.5855716466903687
695,1.0,7.681421266170219e-05,7.681421266170219e-05,1e-04,0.8700000047683716,0.5859187245368958,0.5859187245368958
696,1.0,7.674865628359839e-05,7.674865628359839e-05,1e-04,0.8700000047683716,0.5860352516174316,0.5860352516174316
697,1.0,7.666044984944165e-05,7.666044984944165e-05,1e-04,0.8700000047683716,0.58616042137146,0.58616042137146
698,1.0,7.658297545276582e-05,7.658297545276582e-05,1e-04,0.8700000047683716,0.5862604379653931,0.5862604379653931
699,1.0,7.650311454199255e-05,7.650311454199255e-05,1e-04,0.8700000047683716,0.5865770578384399,0.5865770578384399
700,1.0,7.642802665941417e-05,7.642802665941417e-05,1e-04,0.8700000047683716,0.5868751406669617,0.5868751406669617
701,1.0,7.635054498678073e-05,7.635054498678073e-05,1e-04,0.8700000047683716,0.5869504809379578,0.5869504809379578
702,1.0,7.62826093705371e-05,7.62826093705371e-05,1e-04,0.8700000047683716,0.5873802304267883,0.5873802304267883
703,1.0,7.620393444085494e-05,7.620393444085494e-05,1e-04,0.8700000047683716,0.5876392722129822,0.5876392722129822
704,1.0,7.61205010348931e-05,7.61205010348931e-05,1e-04,0.8700000047683716,0.5877666473388672,0.5877666473388672
705,1.0,7.605851715197787e-05,7.605851715197787e-05,1e-04,0.8700000047683716,0.5881145000457764,0.5881145000457764
706,1.0,7.597984949825332e-05,7.597984949825332e-05,1e-04,0.8700000047683716,0.5883254408836365,0.5883254408836365
707,1.0,7.589879533043131e-05,7.589879533043131e-05,1e-04,0.8700000047683716,0.5888261198997498,0.5888261198997498
708,1.0,7.583323895232752e-05,7.583323895232752e-05,1e-04,0.8700000047683716,0.5890581011772156,0.5890581011772156
709,1.0,7.576053030788898e-05,7.576053030788898e-05,1e-04,0.8700000047683716,0.5892152190208435,0.5892152190208435
710,1.0,7.567232387373224e-05,7.567232387373224e-05,1e-04,0.8700000047683716,0.5896750688552856,0.5896750688552856
711,1.0,7.559722871519625e-05,7.559722871519625e-05,1e-04,0.8700000047683716,0.5899968147277832,0.5899968147277832
712,1.0,7.551975431852043e-05,7.551975431852043e-05,1e-04,0.8700000047683716,0.5903941988945007,0.5903941988945007
713,1.0,7.544465915998444e-05,7.544465915998444e-05,1e-04,0.8700000047683716,0.5906800627708435,0.5906800627708435
714,1.0,7.535884651588276e-05,7.535884651588276e-05,1e-04,0.8700000047683716,0.5910037159919739,0.5910037159919739
715,1.0,7.529209688073024e-05,7.529209688073024e-05,1e-04,0.8700000047683716,0.5912864208221436,0.5912864208221436
716,1.0,7.521104271290824e-05,7.521104271290824e-05,1e-04,0.8700000047683716,0.5913826823234558,0.5913826823234558
717,1.0,7.513594027841464e-05,7.513594027841464e-05,1e-04,0.8700000047683716,0.5916519165039062,0.5916519165039062
718,1.0,7.506204565288499e-05,7.506204565288499e-05,1e-04,0.8700000047683716,0.5917831063270569,0.5917831063270569
719,1.0,7.498933700844646e-05,7.498933700844646e-05,1e-04,0.8700000047683716,0.592147707939148,0.592147707939148
720,1.0,7.49261598684825e-05,7.49261598684825e-05,1e-04,0.8700000047683716,0.5922497510910034,0.5922497510910034
721,1.0,7.483438093913719e-05,7.483438093913719e-05,1e-04,0.8700000047683716,0.5924190282821655,0.5924190282821655
722,1.0,7.476166501874104e-05,7.476166501874104e-05,1e-04,0.8700000047683716,0.5926880836486816,0.5926880836486816
723,1.0,7.46782316127792e-05,7.46782316127792e-05,1e-04,0.8700000047683716,0.5929586291313171,0.5929586291313171
724,1.0,7.461028872057796e-05,7.461028872057796e-05,1e-04,0.8700000047683716,0.5931181907653809,0.5931181907653809
725,1.0,7.453281432390213e-05,7.453281432390213e-05,1e-04,0.8700000047683716,0.5935673713684082,0.5935673713684082
726,1.0,7.446725066984072e-05,7.446725066984072e-05,1e-04,0.8700000047683716,0.5936791896820068,0.5936791896820068
727,1.0,7.439693581545725e-05,7.439693581545725e-05,1e-04,0.8700000047683716,0.5940050482749939,0.5940050482749939
728,1.0,7.433137216139585e-05,7.433137216139585e-05,1e-04,0.8700000047683716,0.5943117737770081,0.5943117737770081
729,1.0,7.425151125062257e-05,7.425151125062257e-05,1e-04,0.8700000047683716,0.5944623947143555,0.5944623947143555
730,1.0,7.418476161547005e-05,7.418476161547005e-05,1e-04,0.8700000047683716,0.5946967601776123,0.5946967601776123
731,1.0,7.412159175146371e-05,7.412159175146371e-05,1e-04,0.8700000047683716,0.5947444438934326,0.5947444438934326
732,1.0,7.404531061183661e-05,7.404531061183661e-05,1e-04,0.8700000047683716,0.5950111150741577,0.5950111150741577
733,1.0,7.397855370072648e-05,7.397855370072648e-05,1e-04,0.8700000047683716,0.5952367782592773,0.5952367782592773
734,1.0,7.388438825728372e-05,7.388438825728372e-05,1e-04,0.8700000047683716,0.595355749130249,0.595355749130249
735,1.0,7.379380258498713e-05,7.379380258498713e-05,1e-04,0.8700000047683716,0.595482349395752,0.595482349395752
736,1.0,7.370202365564182e-05,7.370202365564182e-05,1e-04,0.8700000047683716,0.5956102609634399,0.5956102609634399
737,1.0,7.362454198300838e-05,7.362454198300838e-05,1e-04,0.8700000047683716,0.5961403846740723,0.5961403846740723
738,1.0,7.35494468244724e-05,7.35494468244724e-05,1e-04,0.8700000047683716,0.5964515805244446,0.5964515805244446
739,1.0,7.349699444603175e-05,7.349699444603175e-05,1e-04,0.8700000047683716,0.5966758131980896,0.5966758131980896
740,1.0,7.340164302149788e-05,7.340164302149788e-05,1e-04,0.8700000047683716,0.5968673229217529,0.5968673229217529
741,1.0,7.332654786296189e-05,7.332654786296189e-05,1e-04,0.8700000047683716,0.5967187881469727,0.5967187881469727
742,1.0,7.326337799895555e-05,7.326337799895555e-05,1e-04,0.8700000047683716,0.5969176292419434,0.5969176292419434
743,1.0,7.319185533560812e-05,7.319185533560812e-05,1e-04,0.8700000047683716,0.5970147848129272,0.5970147848129272
744,1.0,7.312868547160178e-05,7.312868547160178e-05,1e-04,0.8700000047683716,0.5972144603729248,0.5972144603729248
745,1.0,7.305597682716325e-05,7.305597682716325e-05,1e-04,0.8700000047683716,0.5975695848464966,0.5975695848464966
746,1.0,7.29927996871993e-05,7.29927996871993e-05,1e-04,0.8700000047683716,0.5976762771606445,0.5976762771606445
747,1.0,7.292843656614423e-05,7.292843656614423e-05,1e-04,0.8700000047683716,0.5977805852890015,0.5977805852890015
748,1.0,7.286049367394298e-05,7.286049367394298e-05,1e-04,0.8700000047683716,0.5978582501411438,0.5978582501411438
749,1.0,7.2785398515407e-05,7.2785398515407e-05,1e-04,0.8700000047683716,0.5981489419937134,0.5981489419937134
750,1.0,7.271626964211464e-05,7.271626964211464e-05,1e-04,0.8700000047683716,0.5982177257537842,0.5982177257537842
751,1.0,7.262925646500662e-05,7.262925646500662e-05,1e-04,0.8700000047683716,0.5985124707221985,0.5985124707221985
752,1.0,7.253628427861258e-05,7.253628427861258e-05,1e-04,0.8700000047683716,0.5986699461936951,0.5986699461936951
753,1.0,7.247668690979481e-05,7.247668690979481e-05,1e-04,0.8700000047683716,0.5985555052757263,0.5985555052757263
754,1.0,7.240874401759356e-05,7.240874401759356e-05,1e-04,0.8700000047683716,0.5986753702163696,0.5986753702163696
755,1.0,7.232053758343682e-05,7.232053758343682e-05,1e-04,0.8700000047683716,0.5988578200340271,0.5988578200340271
756,1.0,7.225736771943048e-05,7.225736771943048e-05,1e-04,0.8700000047683716,0.5991640686988831,0.5991640686988831
757,1.0,7.217035454232246e-05,7.217035454232246e-05,1e-04,0.8700000047683716,0.5994700789451599,0.5994700789451599
758,1.0,7.210479816421866e-05,7.210479816421866e-05,1e-04,0.8700000047683716,0.5997021198272705,0.5997021198272705
759,1.0,7.204519351944327e-05,7.204519351944327e-05,1e-04,0.8700000047683716,0.5996557474136353,0.5996557474136353
760,1.0,7.197248487500474e-05,7.197248487500474e-05,1e-04,0.8700000047683716,0.5997548699378967,0.5997548699378967
761,1.0,7.189380994532257e-05,7.189380994532257e-05,1e-04,0.8700000047683716,0.5999501943588257,0.5999501943588257
762,1.0,7.181753608165309e-05,7.181753608165309e-05,1e-04,0.8700000047683716,0.6001489162445068,0.6001489162445068
763,1.0,7.174362690420821e-05,7.174362690420821e-05,1e-04,0.8700000047683716,0.6004267930984497,0.6004267930984497
764,1.0,7.169832679210231e-05,7.169832679210231e-05,1e-04,0.8700000047683716,0.6003824472427368,0.6003824472427368
765,1.0,7.161846588132903e-05,7.161846588132903e-05,1e-04,0.8700000047683716,0.6004304885864258,0.6004304885864258
766,1.0,7.15612550266087e-05,7.15612550266087e-05,1e-04,0.8700000047683716,0.60054612159729,0.60054612159729
767,1.0,7.146827556425706e-05,7.146827556425706e-05,1e-04,0.8700000047683716,0.6007606387138367,0.6007606387138367
768,1.0,7.141703099478036e-05,7.141703099478036e-05,1e-04,0.8700000047683716,0.600580096244812,0.600580096244812
769,1.0,7.133121107472107e-05,7.133121107472107e-05,1e-04,0.8700000047683716,0.6009441614151001,0.6009441614151001
770,1.0,7.125611591618508e-05,7.125611591618508e-05,1e-04,0.8700000047683716,0.6011597514152527,0.6011597514152527
771,1.0,7.119532529031858e-05,7.119532529031858e-05,1e-04,0.8700000047683716,0.6013882160186768,0.6013882160186768
772,1.0,7.111188460839912e-05,7.111188460839912e-05,1e-04,0.8700000047683716,0.6015840768814087,0.6015840768814087
773,1.0,7.104870746843517e-05,7.104870746843517e-05,1e-04,0.8700000047683716,0.6017783880233765,0.6017783880233765
774,1.0,7.099149661371484e-05,7.099149661371484e-05,1e-04,0.8700000047683716,0.6018734574317932,0.6018734574317932
775,1.0,7.089852442732081e-05,7.089852442732081e-05,1e-04,0.8700000047683716,0.6017400622367859,0.6017400622367859
776,1.0,7.081866351654753e-05,7.081866351654753e-05,1e-04,0.8700000047683716,0.6022552847862244,0.6022552847862244
777,1.0,7.073642336763442e-05,7.073642336763442e-05,1e-04,0.8700000047683716,0.6021049618721008,0.6021049618721008
778,1.0,7.068397098919377e-05,7.068397098919377e-05,1e-04,0.8700000047683716,0.6025010347366333,0.6025010347366333
779,1.0,7.060053030727431e-05,7.060053030727431e-05,1e-04,0.8700000047683716,0.6029026508331299,0.6029026508331299
780,1.0,7.052305591059849e-05,7.052305591059849e-05,1e-04,0.8700000047683716,0.6031016707420349,0.6031016707420349
781,1.0,7.047180406516418e-05,7.047180406516418e-05,1e-04,0.8700000047683716,0.6028954982757568,0.6028954982757568
782,1.0,7.039432239253074e-05,7.039432239253074e-05,1e-04,0.8700000047683716,0.6029890179634094,0.6029890179634094
783,1.0,7.030849519651383e-05,7.030849519651383e-05,1e-04,0.8700000047683716,0.6030988097190857,0.6030988097190857
784,1.0,7.025129161775112e-05,7.025129161775112e-05,1e-04,0.8700000047683716,0.6032755970954895,0.6032755970954895
785,1.0,7.018810720182955e-05,7.018810720182955e-05,1e-04,0.8700000047683716,0.6033567786216736,0.6033567786216736
786,1.0,7.011540583334863e-05,7.011540583334863e-05,1e-04,0.8600000143051147,0.6034815907478333,0.6034815907478333
787,1.0,7.002719212323427e-05,7.002719212323427e-05,1e-04,0.8600000143051147,0.6037704348564148,0.6037704348564148
788,1.0,6.996283627813682e-05,6.996283627813682e-05,1e-04,0.8600000143051147,0.6037818789482117,0.6037818789482117
789,1.0,6.989846588112414e-05,6.989846588112414e-05,1e-04,0.8600000143051147,0.6039521098136902,0.6039521098136902
790,1.0,6.981740443734452e-05,6.981740443734452e-05,1e-04,0.8600000143051147,0.6041297316551208,0.6041297316551208
791,1.0,6.976735312491655e-05,6.976735312491655e-05,1e-04,0.8600000143051147,0.6044716238975525,0.6044716238975525
792,1.0,6.969939568080008e-05,6.969939568080008e-05,1e-04,0.8600000143051147,0.6046295762062073,0.6046295762062073
793,1.0,6.963623309275135e-05,6.963623309275135e-05,1e-04,0.8600000143051147,0.6047557592391968,0.6047557592391968
794,1.0,6.956948345759884e-05,6.956948345759884e-05,1e-04,0.8600000143051147,0.6046172976493835,0.6046172976493835
795,1.0,6.950512033654377e-05,6.950512033654377e-05,1e-04,0.8600000143051147,0.604851245880127,0.604851245880127
796,1.0,6.941929314052686e-05,6.941929314052686e-05,1e-04,0.8600000143051147,0.6049097776412964,0.6049097776412964
797,1.0,6.935254350537434e-05,6.935254350537434e-05,1e-04,0.8600000143051147,0.6050472855567932,0.6050472855567932
798,1.0,6.928340735612437e-05,6.928340735612437e-05,1e-04,0.8600000143051147,0.6052519083023071,0.6052519083023071
799,1.0,6.920951273059472e-05,6.920951273059472e-05,1e-04,0.8600000143051147,0.6055909395217896,0.6055909395217896
800,1.0,6.914633559063077e-05,6.914633559063077e-05,1e-04,0.8600000143051147,0.6054469347000122,0.6054469347000122
801,1.0,6.908077193656936e-05,6.908077193656936e-05,1e-04,0.8600000143051147,0.6056874990463257,0.6056874990463257
802,1.0,6.89961452735588e-05,6.89961452735588e-05,1e-04,0.8600000143051147,0.6058679223060608,0.6058679223060608
803,1.0,6.89460794092156e-05,6.89460794092156e-05,1e-04,0.8600000143051147,0.6059415936470032,0.6059415936470032
804,1.0,6.885668699396774e-05,6.885668699396774e-05,1e-04,0.8600000143051147,0.6061298847198486,0.6061298847198486
805,1.0,6.879112333990633e-05,6.879112333990633e-05,1e-04,0.8600000143051147,0.6061109304428101,0.6061109304428101
806,1.0,6.873629172332585e-05,6.873629172332585e-05,1e-04,0.8600000143051147,0.6064500212669373,0.6064500212669373
807,1.0,6.866716285003349e-05,6.866716285003349e-05,1e-04,0.8600000143051147,0.6063242554664612,0.6063242554664612
808,1.0,6.860517896711826e-05,6.860517896711826e-05,1e-04,0.8600000143051147,0.6066294312477112,0.6066294312477112
809,1.0,6.855034007458016e-05,6.855034007458016e-05,1e-04,0.8600000143051147,0.6068981289863586,0.6068981289863586
810,1.0,6.846452743047848e-05,6.846452743047848e-05,1e-04,0.8600000143051147,0.6070831418037415,0.6070831418037415
811,1.0,6.840492278570309e-05,6.840492278570309e-05,1e-04,0.8600000143051147,0.6069636940956116,0.6069636940956116
812,1.0,6.832745566498488e-05,6.832745566498488e-05,1e-04,0.8600000143051147,0.6070960760116577,0.6070960760116577
813,1.0,6.826785102020949e-05,6.826785102020949e-05,1e-04,0.8600000143051147,0.6071971654891968,0.6071971654891968
814,1.0,6.81975216139108e-05,6.81975216139108e-05,1e-04,0.8600000143051147,0.6073887944221497,0.6073887944221497
815,1.0,6.813673098804429e-05,6.813673098804429e-05,1e-04,0.8600000143051147,0.6077869534492493,0.6077869534492493
816,1.0,6.806760211475194e-05,6.806760211475194e-05,1e-04,0.8600000143051147,0.6076388359069824,0.6076388359069824
817,1.0,6.801753625040874e-05,6.801753625040874e-05,1e-04,0.8600000143051147,0.6076751947402954,0.6076751947402954
818,1.0,6.794244109187275e-05,6.794244109187275e-05,1e-04,0.8600000143051147,0.6081886887550354,0.6081886887550354
819,1.0,6.787092570448294e-05,6.787092570448294e-05,1e-04,0.8600000143051147,0.6083765625953674,0.6083765625953674
820,1.0,6.781013507861644e-05,6.781013507861644e-05,1e-04,0.8600000143051147,0.6083330512046814,0.6083330512046814
821,1.0,6.773623317712918e-05,6.773623317712918e-05,1e-04,0.8600000143051147,0.608454167842865,0.608454167842865
822,1.0,6.768020830349997e-05,6.768020830349997e-05,1e-04,0.8600000143051147,0.608375608921051,0.608375608921051
823,1.0,6.76158451824449e-05,6.76158451824449e-05,1e-04,0.8600000143051147,0.6083489060401917,0.6083489060401917
824,1.0,6.754193600500003e-05,6.754193600500003e-05,1e-04,0.8600000143051147,0.6087145805358887,0.6087145805358887
825,1.0,6.748234591213986e-05,6.748234591213986e-05,1e-04,0.8600000143051147,0.608864426612854,0.608864426612854
826,1.0,6.742512778146192e-05,6.742512778146192e-05,1e-04,0.8600000143051147,0.608935534954071,0.608935534954071
827,1.0,6.735599163221195e-05,6.735599163221195e-05,1e-04,0.8600000143051147,0.6091610789299011,0.6091610789299011
828,1.0,6.728804874001071e-05,6.728804874001071e-05,1e-04,0.8600000143051147,0.6093950271606445,0.6093950271606445
829,1.0,6.722010584780946e-05,6.722010584780946e-05,1e-04,0.8600000143051147,0.6092811822891235,0.6092811822891235
830,1.0,6.715096969855949e-05,6.715096969855949e-05,1e-04,0.8600000143051147,0.6093565821647644,0.6093565821647644
831,1.0,6.709375884383917e-05,6.709375884383917e-05,1e-04,0.8600000143051147,0.6095829606056213,0.6095829606056213
832,1.0,6.703058170387521e-05,6.703058170387521e-05,1e-04,0.8600000143051147,0.6096521615982056,0.6096521615982056
833,1.0,6.696741183986887e-05,6.696741183986887e-05,1e-04,0.8600000143051147,0.6100105047225952,0.6100105047225952
834,1.0,6.690900045214221e-05,6.690900045214221e-05,1e-04,0.8600000143051147,0.6103801131248474,0.6103801131248474
835,1.0,6.682556704618037e-05,6.682556704618037e-05,1e-04,0.8600000143051147,0.6105185747146606,0.6105185747146606
836,1.0,6.677788769593462e-05,6.677788769593462e-05,1e-04,0.8600000143051147,0.610388994216919,0.610388994216919
837,1.0,6.671113078482449e-05,6.671113078482449e-05,1e-04,0.8600000143051147,0.6105149388313293,0.6105149388313293
838,1.0,6.664676766376942e-05,6.664676766376942e-05,1e-04,0.8600000143051147,0.6105382442474365,0.6105382442474365
839,1.0,6.655736797256395e-05,6.655736797256395e-05,1e-04,0.8500000238418579,0.6107453107833862,0.6107453107833862
840,1.0,6.651207513641566e-05,6.651207513641566e-05,1e-04,0.8500000238418579,0.6108486652374268,0.6108486652374268
841,1.0,6.645128451054916e-05,6.645128451054916e-05,1e-04,0.8500000238418579,0.6111897230148315,0.6111897230148315
842,1.0,6.63881073705852e-05,6.63881073705852e-05,1e-04,0.8500000238418579,0.6110519766807556,0.6110519766807556
843,1.0,6.630467396462336e-05,6.630467396462336e-05,1e-04,0.8500000238418579,0.6112273931503296,0.6112273931503296
844,1.0,6.62510356050916e-05,6.62510356050916e-05,1e-04,0.8500000238418579,0.611341118812561,0.611341118812561
845,1.0,6.618308543693274e-05,6.618308543693274e-05,1e-04,0.8500000238418579,0.6111930012702942,0.6111930012702942
846,1.0,6.61091908114031e-05,6.61091908114031e-05,1e-04,0.8500000238418579,0.6113610863685608,0.6113610863685608
847,1.0,6.60650766803883e-05,6.60650766803883e-05,1e-04,0.8500000238418579,0.6115814447402954,0.6115814447402954
848,1.0,6.598165055038407e-05,6.598165055038407e-05,1e-04,0.8500000238418579,0.6117966771125793,0.6117966771125793
849,1.0,6.591489363927394e-05,6.591489363927394e-05,1e-04,0.8500000238418579,0.6118385791778564,0.6118385791778564
850,1.0,6.585768278455362e-05,6.585768278455362e-05,1e-04,0.8500000238418579,0.6121094226837158,0.6121094226837158
851,1.0,6.577186286449432e-05,6.577186286449432e-05,1e-04,0.8500000238418579,0.6121541857719421,0.6121541857719421
852,1.0,6.571821722900495e-05,6.571821722900495e-05,1e-04,0.8500000238418579,0.612167477607727,0.612167477607727
853,1.0,6.563836359418929e-05,6.563836359418929e-05,1e-04,0.8500000238418579,0.6123932003974915,0.6123932003974915
854,1.0,6.557041342603043e-05,6.557041342603043e-05,1e-04,0.8500000238418579,0.6127119064331055,0.6127119064331055
855,1.0,6.550962280016392e-05,6.550962280016392e-05,1e-04,0.8500000238418579,0.6128162145614624,0.6128162145614624
856,1.0,6.544645293615758e-05,6.544645293615758e-05,1e-04,0.8500000238418579,0.6130123734474182,0.6130123734474182
857,1.0,6.538923480547965e-05,6.538923480547965e-05,1e-04,0.8500000238418579,0.6130470037460327,0.6130470037460327
858,1.0,6.531532562803477e-05,6.531532562803477e-05,1e-04,0.8500000238418579,0.6133629083633423,0.6133629083633423
859,1.0,6.526408105855808e-05,6.526408105855808e-05,1e-04,0.8500000238418579,0.6134120225906372,0.6134120225906372
860,1.0,6.519613089039922e-05,6.519613089039922e-05,1e-04,0.8500000238418579,0.6136268377304077,0.6136268377304077
861,1.0,6.512461550300941e-05,6.512461550300941e-05,1e-04,0.8500000238418579,0.6136028170585632,0.6136028170585632
862,1.0,6.506263162009418e-05,6.506263162009418e-05,1e-04,0.8500000238418579,0.6137953996658325,0.6137953996658325
863,1.0,6.501495226984844e-05,6.501495226984844e-05,1e-04,0.8500000238418579,0.6138868927955627,0.6138868927955627
864,1.0,6.493271212093532e-05,6.493271212093532e-05,1e-04,0.8500000238418579,0.6140382289886475,0.6140382289886475
865,1.0,6.486238271463662e-05,6.486238271463662e-05,1e-04,0.8500000238418579,0.6139004826545715,0.6139004826545715
866,1.0,6.48206623736769e-05,6.48206623736769e-05,1e-04,0.8500000238418579,0.6140658855438232,0.6140658855438232
867,1.0,6.47443812340498e-05,6.47443812340498e-05,1e-04,0.8500000238418579,0.6140456199645996,0.6140456199645996
868,1.0,6.468835636042058e-05,6.468835636042058e-05,1e-04,0.8500000238418579,0.61439448595047,0.61439448595047
869,1.0,6.461683369707316e-05,6.461683369707316e-05,1e-04,0.8500000238418579,0.6144327521324158,0.6144327521324158
870,1.0,6.455246330006048e-05,6.455246330006048e-05,1e-04,0.8500000238418579,0.6145614385604858,0.6145614385604858
871,1.0,6.44773681415245e-05,6.44773681415245e-05,1e-04,0.8500000238418579,0.6146115660667419,0.6146115660667419
872,1.0,6.442850281018764e-05,6.442850281018764e-05,1e-04,0.8500000238418579,0.6147323846817017,0.6147323846817017
873,1.0,6.437129195546731e-05,6.437129195546731e-05,1e-04,0.8500000238418579,0.61468505859375,0.61468505859375
874,1.0,6.429381028283387e-05,6.429381028283387e-05,1e-04,0.8500000238418579,0.6146661043167114,0.6146661043167114
875,1.0,6.424137245630845e-05,6.424137245630845e-05,1e-04,0.8500000238418579,0.6149209141731262,0.6149209141731262
876,1.0,6.416864925995469e-05,6.416864925995469e-05,1e-04,0.8500000238418579,0.615242063999176,0.615242063999176
877,1.0,6.4098319853656e-05,6.4098319853656e-05,1e-04,0.8500000238418579,0.6151614189147949,0.6151614189147949
878,1.0,6.404945452231914e-05,6.404945452231914e-05,1e-04,0.8500000238418579,0.6151978373527527,0.6151978373527527
879,1.0,6.399463018169627e-05,6.399463018169627e-05,1e-04,0.8500000238418579,0.615243673324585,0.615243673324585
880,1.0,6.392310751834884e-05,6.392310751834884e-05,1e-04,0.8500000238418579,0.6154976487159729,0.6154976487159729
881,1.0,6.3861116359476e-05,6.3861116359476e-05,1e-04,0.8500000238418579,0.6156514883041382,0.6156514883041382
882,1.0,6.380390550475568e-05,6.380390550475568e-05,1e-04,0.8500000238418579,0.6156267523765564,0.6156267523765564
883,1.0,6.372762436512858e-05,6.372762436512858e-05,1e-04,0.8500000238418579,0.6158480048179626,0.6158480048179626
884,1.0,6.367159949149936e-05,6.367159949149936e-05,1e-04,0.8500000238418579,0.6156913638114929,0.6156913638114929
885,1.0,6.360484258038923e-05,6.360484258038923e-05,1e-04,0.8500000238418579,0.6154724955558777,0.6154724955558777
886,1.0,6.354285142151639e-05,6.354285142151639e-05,1e-04,0.8500000238418579,0.6155943870544434,0.6155943870544434
887,1.0,6.347372982418165e-05,6.347372982418165e-05,1e-04,0.8500000238418579,0.6158487796783447,0.6158487796783447
888,1.0,6.341531843645498e-05,6.341531843645498e-05,1e-04,0.8500000238418579,0.6158713698387146,0.6158713698387146
889,1.0,6.336047954391688e-05,6.336047954391688e-05,1e-04,0.8500000238418579,0.6160207986831665,0.6160207986831665
890,1.0,6.329969619400799e-05,6.329969619400799e-05,1e-04,0.8500000238418579,0.6161954402923584,0.6161954402923584
891,1.0,6.322102854028344e-05,6.322102854028344e-05,1e-04,0.8500000238418579,0.6163210868835449,0.6163210868835449
892,1.0,6.317572842817754e-05,6.317572842817754e-05,1e-04,0.8500000238418579,0.616454541683197,0.616454541683197
893,1.0,6.310659227892756e-05,6.310659227892756e-05,1e-04,0.8500000238418579,0.616575300693512,0.616575300693512
894,1.0,6.30422291578725e-05,6.30422291578725e-05,1e-04,0.8500000238418579,0.616725504398346,0.616725504398346
895,1.0,6.298501830315217e-05,6.298501830315217e-05,1e-04,0.8500000238418579,0.6166485548019409,0.6166485548019409
896,1.0,6.293852493399754e-05,6.293852493399754e-05,1e-04,0.8500000238418579,0.6167625188827515,0.6167625188827515
897,1.0,6.288250733632594e-05,6.288250733632594e-05,1e-04,0.8500000238418579,0.6167099475860596,0.6167099475860596
898,1.0,6.28145644441247e-05,6.28145644441247e-05,1e-04,0.8500000238418579,0.6167913675308228,0.6167913675308228
899,1.0,6.274781480897218e-05,6.274781480897218e-05,1e-04,0.8500000238418579,0.6166882514953613,0.6166882514953613
900,1.0,6.267629214562476e-05,6.267629214562476e-05,1e-04,0.8500000238418579,0.6170627474784851,0.6170627474784851
901,1.0,6.26131150056608e-05,6.26131150056608e-05,1e-04,0.8500000238418579,0.6168275475502014,0.6168275475502014
902,1.0,6.254994514165446e-05,6.254994514165446e-05,1e-04,0.8500000238418579,0.6168909668922424,0.6168909668922424
903,1.0,6.249869329622015e-05,6.249869329622015e-05,1e-04,0.8500000238418579,0.616946280002594,0.616946280002594
904,1.0,6.244385440368205e-05,6.244385440368205e-05,1e-04,0.8500000238418579,0.6170920729637146,0.6170920729637146
905,1.0,6.237829074962065e-05,6.237829074962065e-05,1e-04,0.8500000238418579,0.6170834898948669,0.6170834898948669
906,1.0,6.232346640899777e-05,6.232346640899777e-05,1e-04,0.8500000238418579,0.6173825860023499,0.6173825860023499
907,1.0,6.226982804946601e-05,6.226982804946601e-05,1e-04,0.8500000238418579,0.6174123287200928,0.6174123287200928
908,1.0,6.220545765245333e-05,6.220545765245333e-05,1e-04,0.8500000238418579,0.6175205111503601,0.6175205111503601
909,1.0,6.214705354068428e-05,6.214705354068428e-05,1e-04,0.8500000238418579,0.6177406311035156,0.6177406311035156
910,1.0,6.206480611581355e-05,6.206480611581355e-05,1e-04,0.8500000238418579,0.6178412437438965,0.6178412437438965
911,1.0,6.202427903190255e-05,6.202427903190255e-05,1e-04,0.8500000238418579,0.6182072162628174,0.6182072162628174
912,1.0,6.195157038746402e-05,6.195157038746402e-05,1e-04,0.8500000238418579,0.6182627081871033,0.6182627081871033
913,1.0,6.189793202793226e-05,6.189793202793226e-05,1e-04,0.8500000238418579,0.6180887222290039,0.6180887222290039
914,1.0,6.184547964949161e-05,6.184547964949161e-05,1e-04,0.8500000238418579,0.6182871460914612,0.6182871460914612
915,1.0,6.177515751915053e-05,6.177515751915053e-05,1e-04,0.8500000238418579,0.6184101104736328,0.6184101104736328
916,1.0,6.171793938847259e-05,6.171793938847259e-05,1e-04,0.8500000238418579,0.6185871362686157,0.6185871362686157
917,1.0,6.167383253341541e-05,6.167383253341541e-05,1e-04,0.8500000238418579,0.6187897324562073,0.6187897324562073
918,1.0,6.160827615531161e-05,6.160827615531161e-05,1e-04,0.8500000238418579,0.6190328001976013,0.6190328001976013
919,1.0,6.156416930025443e-05,6.156416930025443e-05,1e-04,0.8500000238418579,0.6190787553787231,0.6190787553787231
920,1.0,6.14914606558159e-05,6.14914606558159e-05,1e-04,0.8500000238418579,0.6192091703414917,0.6192091703414917
921,1.0,6.143066275399178e-05,6.143066275399178e-05,1e-04,0.8500000238418579,0.6192581057548523,0.6192581057548523
922,1.0,6.137226591818035e-05,6.137226591818035e-05,1e-04,0.8500000238418579,0.6190857291221619,0.6190857291221619
923,1.0,6.13055017311126e-05,6.13055017311126e-05,1e-04,0.8500000238418579,0.6192305088043213,0.6192305088043213
924,1.0,6.124829087639228e-05,6.124829087639228e-05,1e-04,0.8500000238418579,0.6194427013397217,0.6194427013397217
925,1.0,6.117557495599613e-05,6.117557495599613e-05,1e-04,0.8500000238418579,0.6191955208778381,0.6191955208778381
926,1.0,6.109691457822919e-05,6.109691457822919e-05,1e-04,0.8500000238418579,0.6193385720252991,0.6193385720252991
927,1.0,6.105042848503217e-05,6.105042848503217e-05,1e-04,0.8500000238418579,0.6191958785057068,0.6191958785057068
928,1.0,6.098367157392204e-05,6.098367157392204e-05,1e-04,0.8500000238418579,0.6193870306015015,0.6193870306015015
929,1.0,6.091930845286697e-05,6.091930845286697e-05,1e-04,0.8500000238418579,0.6193832159042358,0.6193832159042358
930,1.0,6.0853744798805565e-05,6.0853744798805565e-05,1e-04,0.8500000238418579,0.6194661259651184,0.6194661259651184
931,1.0,6.079772356315516e-05,6.079772356315516e-05,1e-04,0.8500000238418579,0.6194063425064087,0.6194063425064087
932,1.0,6.0741702327504754e-05,6.0741702327504754e-05,1e-04,0.8500000238418579,0.6194992065429688,0.6194992065429688
933,1.0,6.068807124393061e-05,6.068807124393061e-05,1e-04,0.8500000238418579,0.6195473074913025,0.6195473074913025
934,1.0,6.062965258024633e-05,6.062965258024633e-05,1e-04,0.8500000238418579,0.6197221279144287,0.6197221279144287
935,1.0,6.057482096366584e-05,6.057482096366584e-05,1e-04,0.8500000238418579,0.6197759509086609,0.6197759509086609
936,1.0,6.05068780714646e-05,6.05068780714646e-05,1e-04,0.8500000238418579,0.6197798252105713,0.6197798252105713
937,1.0,6.045801637810655e-05,6.045801637810655e-05,1e-04,0.8500000238418579,0.6196957230567932,0.6196957230567932
938,1.0,6.039364234311506e-05,6.039364234311506e-05,1e-04,0.8500000238418579,0.619767427444458,0.619767427444458
939,1.0,6.033285171724856e-05,6.033285171724856e-05,1e-04,0.8500000238418579,0.6197262406349182,0.6197262406349182
940,1.0,6.027682684361935e-05,6.027682684361935e-05,1e-04,0.8500000238418579,0.6196964383125305,0.6196964383125305
941,1.0,6.02339168835897e-05,6.02339168835897e-05,1e-04,0.8500000238418579,0.619863748550415,0.619863748550415
942,1.0,6.018028216203675e-05,6.018028216203675e-05,1e-04,0.8500000238418579,0.6199171543121338,0.6199171543121338
943,1.0,6.0111146012786776e-05,6.0111146012786776e-05,1e-04,0.8500000238418579,0.6201255321502686,0.6201255321502686
944,1.0,6.005035538692027e-05,6.005035538692027e-05,1e-04,0.8500000238418579,0.6201999187469482,0.6201999187469482
945,1.0,5.998717460897751e-05,5.998717460897751e-05,1e-04,0.8500000238418579,0.6201626658439636,0.6201626658439636
946,1.0,5.993114609736949e-05,5.993114609736949e-05,1e-04,0.8500000238418579,0.6202232837677002,0.6202232837677002
947,1.0,5.987394251860678e-05,5.987394251860678e-05,1e-04,0.8500000238418579,0.6202785968780518,0.6202785968780518
948,1.0,5.980360947432928e-05,5.980360947432928e-05,1e-04,0.8500000238418579,0.6203267574310303,0.6203267574310303
949,1.0,5.9741629229392856e-05,5.9741629229392856e-05,1e-04,0.8500000238418579,0.6203408241271973,0.6203408241271973
950,1.0,5.970228448859416e-05,5.970228448859416e-05,1e-04,0.8500000238418579,0.620477557182312,0.620477557182312
951,1.0,5.9639118262566626e-05,5.9639118262566626e-05,1e-04,0.8500000238418579,0.620644748210907,0.620644748210907
952,1.0,5.9573558246484026e-05,5.9573558246484026e-05,1e-04,0.8500000238418579,0.620652437210083,0.620652437210083
953,1.0,5.952349238214083e-05,5.952349238214083e-05,1e-04,0.8500000238418579,0.6209266185760498,0.6209266185760498
954,1.0,5.945316661382094e-05,5.945316661382094e-05,1e-04,0.8500000238418579,0.621046781539917,0.621046781539917
955,1.0,5.939475886407308e-05,5.939475886407308e-05,1e-04,0.8500000238418579,0.6208875179290771,0.6208875179290771
956,1.0,5.933396460022777e-05,5.933396460022777e-05,1e-04,0.8500000238418579,0.6210962533950806,0.6210962533950806
957,1.0,5.929701364948414e-05,5.929701364948414e-05,1e-04,0.8500000238418579,0.6209424734115601,0.6209424734115601
958,1.0,5.9233840147498995e-05,5.9233840147498995e-05,1e-04,0.8500000238418579,0.6210793852806091,0.6210793852806091
959,1.0,5.9167090512346476e-05,5.9167090512346476e-05,1e-04,0.8500000238418579,0.6210208535194397,0.6210208535194397
960,1.0,5.910868276259862e-05,5.910868276259862e-05,1e-04,0.8500000238418579,0.6211028695106506,0.6211028695106506
961,1.0,5.9049081755802035e-05,5.9049081755802035e-05,1e-04,0.8500000238418579,0.6212401986122131,0.6212401986122131
962,1.0,5.8999019529437646e-05,5.8999019529437646e-05,1e-04,0.8500000238418579,0.621313214302063,0.621313214302063
963,1.0,5.894061177968979e-05,5.894061177968979e-05,1e-04,0.8500000238418579,0.6215808391571045,0.6215808391571045
964,1.0,5.8875055401585996e-05,5.8875055401585996e-05,1e-04,0.8500000238418579,0.6213741302490234,0.6213741302490234
965,1.0,5.882260302314535e-05,5.882260302314535e-05,1e-04,0.8500000238418579,0.6215794086456299,0.6215794086456299
966,1.0,5.875943315913901e-05,5.875943315913901e-05,1e-04,0.8500000238418579,0.6216887831687927,0.6216887831687927
967,1.0,5.870221502846107e-05,5.870221502846107e-05,1e-04,0.8500000238418579,0.6218602657318115,0.6218602657318115
968,1.0,5.86485730309505e-05,5.86485730309505e-05,1e-04,0.8500000238418579,0.6220254898071289,0.6220254898071289
969,1.0,5.8606852689990774e-05,5.8606852689990774e-05,1e-04,0.8500000238418579,0.6221315860748291,0.6221315860748291
970,1.0,5.855202107341029e-05,5.855202107341029e-05,1e-04,0.8500000238418579,0.6221530437469482,0.6221530437469482
971,1.0,5.849003719049506e-05,5.849003719049506e-05,1e-04,0.8500000238418579,0.6224287748336792,0.6224287748336792
972,1.0,5.8424480812391266e-05,5.8424480812391266e-05,1e-04,0.8500000238418579,0.6222175359725952,0.6222175359725952
973,1.0,5.836845230078325e-05,5.836845230078325e-05,1e-04,0.8500000238418579,0.6223795413970947,0.6223795413970947
974,1.0,5.830290319863707e-05,5.830290319863707e-05,1e-04,0.8500000238418579,0.6226365566253662,0.6226365566253662
975,1.0,5.824568142998032e-05,5.824568142998032e-05,1e-04,0.8500000238418579,0.6228020191192627,0.6228020191192627
976,1.0,5.8190849813399836e-05,5.8190849813399836e-05,1e-04,0.8500000238418579,0.6228415369987488,0.6228415369987488
977,1.0,5.8133635320700705e-05,5.8133635320700705e-05,1e-04,0.8500000238418579,0.6229645013809204,0.6229645013809204
978,1.0,5.807403431390412e-05,5.807403431390412e-05,1e-04,0.8500000238418579,0.6232801675796509,0.6232801675796509
979,1.0,5.801800944027491e-05,5.801800944027491e-05,1e-04,0.8500000238418579,0.6231762766838074,0.6231762766838074
980,1.0,5.7966753956861794e-05,5.7966753956861794e-05,1e-04,0.8500000238418579,0.6232700347900391,0.6232700347900391
981,1.0,5.7903580454876646e-05,5.7903580454876646e-05,1e-04,0.8500000238418579,0.6232904195785522,0.6232904195785522
982,1.0,5.784874883829616e-05,5.784874883829616e-05,1e-04,0.8500000238418579,0.6234152317047119,0.6234152317047119
983,1.0,5.779510684078559e-05,5.779510684078559e-05,1e-04,0.8500000238418579,0.623661994934082,0.623661994934082
984,1.0,5.773431621491909e-05,5.773431621491909e-05,1e-04,0.8500000238418579,0.6238544583320618,0.6238544583320618
985,1.0,5.767590846517123e-05,5.767590846517123e-05,1e-04,0.8500000238418579,0.6236267685890198,0.6236267685890198
986,1.0,5.761273132520728e-05,5.761273132520728e-05,1e-04,0.8500000238418579,0.6237052083015442,0.6237052083015442
987,1.0,5.7560286222724244e-05,5.7560286222724244e-05,1e-04,0.8500000238418579,0.6236199140548706,0.6236199140548706
988,1.0,5.750784112024121e-05,5.750784112024121e-05,1e-04,0.8500000238418579,0.6236462593078613,0.6236462593078613
989,1.0,5.744823647546582e-05,5.744823647546582e-05,1e-04,0.8500000238418579,0.6237061619758606,0.6237061619758606
990,1.0,5.74065197724849e-05,5.74065197724849e-05,1e-04,0.8500000238418579,0.6236008405685425,0.6236008405685425
991,1.0,5.7355264289071783e-05,5.7355264289071783e-05,1e-04,0.8500000238418579,0.6236167550086975,0.6236167550086975
992,1.0,5.7284934882773086e-05,5.7284934882773086e-05,1e-04,0.8500000238418579,0.6237931847572327,0.6237931847572327
993,1.0,5.7227720390073955e-05,5.7227720390073955e-05,1e-04,0.8500000238418579,0.6238163113594055,0.6238163113594055
994,1.0,5.717288877349347e-05,5.717288877349347e-05,1e-04,0.8500000238418579,0.6234940886497498,0.6234940886497498
995,1.0,5.7121633290080354e-05,5.7121633290080354e-05,1e-04,0.8500000238418579,0.6235169768333435,0.6235169768333435
996,1.0,5.7067991292569786e-05,5.7067991292569786e-05,1e-04,0.8500000238418579,0.623507559299469,0.623507559299469
997,1.0,5.700958354282193e-05,5.700958354282193e-05,1e-04,0.8500000238418579,0.6235945820808411,0.6235945820808411
998,1.0,5.695475192624144e-05,5.695475192624144e-05,1e-04,0.8500000238418579,0.6235401034355164,0.6235401034355164
999,1.0,5.69070725759957e-05,5.69070725759957e-05,1e-04,0.8500000238418579,0.623744785785675,0.623744785785675
