epoch,accuracy,categorical_crossentropy,loss,lr,val_accuracy,val_categorical_crossentropy,val_loss
0,0.28999999165534973,0.7613040208816528,0.7613040208816528,0.001,0.6399999856948853,0.6866998076438904,0.6866998076438904
1,0.7799999713897705,0.4691583514213562,0.4691583514213562,0.001,0.6399999856948853,0.6857499480247498,0.6857499480247498
2,0.8500000238418579,0.4202328026294708,0.4202328026294708,0.001,0.6399999856948853,0.6843746304512024,0.6843746304512024
3,0.8199999928474426,0.3322710692882538,0.3322710692882538,0.001,0.6399999856948853,0.6835536956787109,0.6835536956787109
4,0.8600000143051147,0.2613077163696289,0.2613077163696289,0.001,0.6399999856948853,0.683851957321167,0.683851957321167
5,0.9399999976158142,0.20692609250545502,0.20692609250545502,0.001,0.6399999856948853,0.6836559176445007,0.6836559176445007
6,0.9300000071525574,0.17771188914775848,0.17771188914775848,0.001,0.6399999856948853,0.6832428574562073,0.6832428574562073
7,0.9700000286102295,0.13807834684848785,0.13807834684848785,0.001,0.6399999856948853,0.6832921504974365,0.6832921504974365
8,0.9599999785423279,0.1281900554895401,0.1281900554895401,0.001,0.6399999856948853,0.6837988495826721,0.6837988495826721
9,0.9599999785423279,0.11328437179327011,0.11328437179327011,0.001,0.6399999856948853,0.6849842667579651,0.6849842667579651
10,0.9900000095367432,0.08855962008237839,0.08855962008237839,0.001,0.6399999856948853,0.6862755417823792,0.6862755417823792
11,0.9800000190734863,0.07538881152868271,0.07538881152868271,0.001,0.6399999856948853,0.687488317489624,0.687488317489624
12,0.9700000286102295,0.06418123841285706,0.06418123841285706,0.001,0.6399999856948853,0.6885529160499573,0.6885529160499573
13,0.9900000095367432,0.054586898535490036,0.054586898535490036,0.001,0.6399999856948853,0.689202070236206,0.689202070236206
14,0.9900000095367432,0.04487809166312218,0.04487809166312218,0.001,0.6700000166893005,0.6901006102561951,0.6901006102561951
15,1.0,0.03871062397956848,0.03871062397956848,0.001,0.6899999976158142,0.6908925771713257,0.6908925771713257
16,1.0,0.03501181676983833,0.03501181676983833,0.001,0.6399999856948853,0.6923028826713562,0.6923028826713562
17,1.0,0.025159310549497604,0.025159310549497604,0.001,0.36000001430511475,0.6934038400650024,0.6934038400650024
18,1.0,0.01969529315829277,0.01969529315829277,0.001,0.3199999928474426,0.6943486928939819,0.6943486928939819
19,1.0,0.016230572015047073,0.016230572015047073,0.001,0.3499999940395355,0.6954577565193176,0.6954577565193176
20,1.0,0.01438695564866066,0.01438695564866066,0.001,0.36000001430511475,0.6966211199760437,0.6966211199760437
21,1.0,0.012104293331503868,0.012104293331503868,0.001,0.36000001430511475,0.6975144147872925,0.6975144147872925
22,1.0,0.010296216234564781,0.010296216234564781,0.001,0.36000001430511475,0.6982042193412781,0.6982042193412781
23,1.0,0.008640004321932793,0.008640004321932793,0.001,0.36000001430511475,0.6989917159080505,0.6989917159080505
24,1.0,0.00832431111484766,0.00832431111484766,0.001,0.36000001430511475,0.6999697685241699,0.6999697685241699
25,1.0,0.00651243282482028,0.00651243282482028,0.001,0.36000001430511475,0.7011048793792725,0.7011048793792725
26,1.0,0.005495469551533461,0.005495469551533461,0.001,0.36000001430511475,0.7022802233695984,0.7022802233695984
27,1.0,0.00540842255577445,0.00540842255577445,0.001,0.36000001430511475,0.703467607498169,0.703467607498169
28,1.0,0.0045070587657392025,0.0045070587657392025,0.001,0.36000001430511475,0.7047391533851624,0.7047391533851624
29,1.0,0.0037994065787643194,0.0037994065787643194,0.001,0.36000001430511475,0.7060697674751282,0.7060697674751282
30,1.0,0.0034432827960699797,0.0034432827960699797,0.001,0.36000001430511475,0.7074289917945862,0.7074289917945862
31,1.0,0.00316495168954134,0.00316495168954134,0.001,0.36000001430511475,0.7087409496307373,0.7087409496307373
32,1.0,0.0029046142008155584,0.0029046142008155584,0.001,0.36000001430511475,0.7099654674530029,0.7099654674530029
33,1.0,0.0026325909420847893,0.0026325909420847893,0.001,0.36000001430511475,0.7110205292701721,0.7110205292701721
34,1.0,0.002355926437303424,0.002355926437303424,0.001,0.36000001430511475,0.7119080424308777,0.7119080424308777
35,1.0,0.0020787527319043875,0.0020787527319043875,0.001,0.36000001430511475,0.7126842737197876,0.7126842737197876
36,1.0,0.001902095042169094,0.001902095042169094,0.001,0.36000001430511475,0.7133578658103943,0.7133578658103943
37,1.0,0.0018128113588318229,0.0018128113588318229,0.001,0.36000001430511475,0.713961124420166,0.713961124420166
38,1.0,0.0017341653583571315,0.0017341653583571315,0.001,0.36000001430511475,0.7145146131515503,0.7145146131515503
39,1.0,0.0016209159512072802,0.0016209159512072802,0.001,0.36000001430511475,0.7150150537490845,0.7150150537490845
40,1.0,0.001488472567871213,0.001488472567871213,0.001,0.36000001430511475,0.7154431939125061,0.7154431939125061
41,1.0,0.0013819116866216063,0.0013819116866216063,0.001,0.36000001430511475,0.7157613635063171,0.7157613635063171
42,1.0,0.0013031349517405033,0.0013031349517405033,0.001,0.36000001430511475,0.7159717082977295,0.7159717082977295
43,1.0,0.0012311827158555388,0.0012311827158555388,0.001,0.36000001430511475,0.7161179184913635,0.7161179184913635
44,1.0,0.0011642350582405925,0.0011642350582405925,0.001,0.36000001430511475,0.7161906957626343,0.7161906957626343
45,1.0,0.0011042121332138777,0.0011042121332138777,0.001,0.36000001430511475,0.716221034526825,0.716221034526825
46,1.0,0.001053060870617628,0.001053060870617628,0.001,0.36000001430511475,0.7161868214607239,0.7161868214607239
47,1.0,0.0010081605287268758,0.0010081605287268758,0.001,0.36000001430511475,0.7160906195640564,0.7160906195640564
48,1.0,0.0009660180076025426,0.0009660180076025426,0.001,0.36000001430511475,0.7159909009933472,0.7159909009933472
49,1.0,0.0009232314769178629,0.0009232314769178629,0.001,0.36000001430511475,0.7157852053642273,0.7157852053642273
50,1.0,0.0008788672275841236,0.0008788672275841236,0.001,0.36000001430511475,0.7155390381813049,0.7155390381813049
51,1.0,0.0008362805237993598,0.0008362805237993598,0.001,0.36000001430511475,0.7152373790740967,0.7152373790740967
52,1.0,0.0007995370542630553,0.0007995370542630553,0.001,0.36000001430511475,0.7148714661598206,0.7148714661598206
53,1.0,0.0007707325275987387,0.0007707325275987387,0.001,0.36000001430511475,0.7145019769668579,0.7145019769668579
54,1.0,0.0007478129118680954,0.0007478129118680954,0.001,0.36000001430511475,0.7141156196594238,0.7141156196594238
55,1.0,0.0007267388864420354,0.0007267388864420354,0.001,0.36000001430511475,0.7137420177459717,0.7137420177459717
56,1.0,0.0007038877811282873,0.0007038877811282873,0.001,0.36000001430511475,0.7133369445800781,0.7133369445800781
57,1.0,0.000678960990626365,0.000678960990626365,0.0005,0.36000001430511475,0.7131794691085815,0.7131794691085815
58,1.0,0.0006663540261797607,0.0006663540261797607,0.0005,0.36000001430511475,0.7130067944526672,0.7130067944526672
59,1.0,0.0006540563190355897,0.0006540563190355897,0.0005,0.36000001430511475,0.7128417491912842,0.7128417491912842
60,1.0,0.0006428892957046628,0.0006428892957046628,0.0005,0.36000001430511475,0.7126643657684326,0.7126643657684326
61,1.0,0.0006332038319669664,0.0006332038319669664,0.0005,0.36000001430511475,0.7124794721603394,0.7124794721603394
62,1.0,0.0006243958487175405,0.0006243958487175405,0.0005,0.36000001430511475,0.7122800350189209,0.7122800350189209
63,1.0,0.0006160083576105535,0.0006160083576105535,0.0005,0.36000001430511475,0.7120745182037354,0.7120745182037354
64,1.0,0.0006079059676267207,0.0006079059676267207,0.0005,0.36000001430511475,0.7118431329727173,0.7118431329727173
65,1.0,0.0006000481662340462,0.0006000481662340462,0.0005,0.36000001430511475,0.7115929126739502,0.7115929126739502
66,1.0,0.0005922915297560394,0.0005922915297560394,0.0005,0.36000001430511475,0.7113373279571533,0.7113373279571533
67,1.0,0.0005849770968779922,0.0005849770968779922,0.0005,0.36000001430511475,0.7110603451728821,0.7110603451728821
68,1.0,0.0005781943909823895,0.0005781943909823895,0.0005,0.36000001430511475,0.710793673992157,0.710793673992157
69,1.0,0.0005718523170799017,0.0005718523170799017,0.0005,0.36000001430511475,0.7105209231376648,0.7105209231376648
70,1.0,0.000565970956813544,0.000565970956813544,0.0005,0.36000001430511475,0.7102221846580505,0.7102221846580505
71,1.0,0.0005599651485681534,0.0005599651485681534,0.0005,0.36000001430511475,0.7099178433418274,0.7099178433418274
72,1.0,0.0005535166128538549,0.0005535166128538549,0.0005,0.36000001430511475,0.7096310257911682,0.7096310257911682
73,1.0,0.0005474101635627449,0.0005474101635627449,0.0005,0.3499999940395355,0.7093582153320312,0.7093582153320312
74,1.0,0.0005413155886344612,0.0005413155886344612,0.0005,0.3499999940395355,0.7090699076652527,0.7090699076652527
75,1.0,0.0005353459855541587,0.0005353459855541587,0.0005,0.3499999940395355,0.7087878584861755,0.7087878584861755
76,1.0,0.0005297000170685351,0.0005297000170685351,0.0005,0.3499999940395355,0.7085102200508118,0.7085102200508118
77,1.0,0.0005245584179647267,0.0005245584179647267,0.0005,0.3499999940395355,0.708224356174469,0.708224356174469
78,1.0,0.0005196977872401476,0.0005196977872401476,0.0005,0.3499999940395355,0.7079300880432129,0.7079300880432129
79,1.0,0.0005149083444848657,0.0005149083444848657,0.0005,0.3499999940395355,0.7076252698898315,0.7076252698898315
80,1.0,0.0005100628477521241,0.0005100628477521241,0.0005,0.3400000035762787,0.7073153853416443,0.7073153853416443
81,1.0,0.0005051482585258782,0.0005051482585258782,0.0005,0.3400000035762787,0.7069886922836304,0.7069886922836304
82,1.0,0.0005002730176784098,0.0005002730176784098,0.0005,0.3400000035762787,0.7066478729248047,0.7066478729248047
83,1.0,0.0004955047625117004,0.0004955047625117004,0.0005,0.3400000035762787,0.7063227891921997,0.7063227891921997
84,1.0,0.0004908605478703976,0.0004908605478703976,0.0005,0.3400000035762787,0.7059778571128845,0.7059778571128845
85,1.0,0.00048633530968800187,0.00048633530968800187,0.0005,0.3400000035762787,0.7056273818016052,0.7056273818016052
86,1.0,0.00048230792162939906,0.00048230792162939906,0.0005,0.3400000035762787,0.705321192741394,0.705321192741394
87,1.0,0.00047817465383559465,0.00047817465383559465,0.0005,0.3400000035762787,0.7049854397773743,0.7049854397773743
88,1.0,0.00047410931438207626,0.00047410931438207626,0.0005,0.3400000035762787,0.7046803832054138,0.7046803832054138
89,1.0,0.00046998332254588604,0.00046998332254588604,0.0005,0.3400000035762787,0.7043449878692627,0.7043449878692627
90,1.0,0.0004660465638153255,0.0004660465638153255,0.0005,0.3400000035762787,0.704017162322998,0.704017162322998
91,1.0,0.0004620182153303176,0.0004620182153303176,0.0005,0.3400000035762787,0.7037203907966614,0.7037203907966614
92,1.0,0.0004581848916132003,0.0004581848916132003,0.0005,0.3400000035762787,0.7034091949462891,0.7034091949462891
93,1.0,0.00045436350046657026,0.00045436350046657026,0.0005,0.3400000035762787,0.7030735611915588,0.7030735611915588
94,1.0,0.0004506242403294891,0.0004506242403294891,0.0005,0.3400000035762787,0.7027353048324585,0.7027353048324585
95,1.0,0.0004470850108191371,0.0004470850108191371,0.0005,0.33000001311302185,0.7024426460266113,0.7024426460266113
96,1.0,0.00044347430230118334,0.00044347430230118334,0.0005,0.33000001311302185,0.7021121382713318,0.7021121382713318
97,1.0,0.0004399016033858061,0.0004399016033858061,0.0005,0.33000001311302185,0.7017757892608643,0.7017757892608643
98,1.0,0.0004364801861811429,0.0004364801861811429,0.0005,0.3199999928474426,0.7014460563659668,0.7014460563659668
99,1.0,0.0004329051007516682,0.0004329051007516682,0.0005,0.3199999928474426,0.7011207342147827,0.7011207342147827
100,1.0,0.0004296611878089607,0.0004296611878089607,0.0005,0.3199999928474426,0.7007954120635986,0.7007954120635986
101,1.0,0.0004263363662175834,0.0004263363662175834,0.0005,0.3199999928474426,0.7004628777503967,0.7004628777503967
102,1.0,0.0004231319180689752,0.0004231319180689752,0.0005,0.33000001311302185,0.7001574635505676,0.7001574635505676
103,1.0,0.0004199107352178544,0.0004199107352178544,0.0005,0.33000001311302185,0.699849545955658,0.699849545955658
104,1.0,0.00041667651385068893,0.00041667651385068893,0.0005,0.3100000023841858,0.6995208859443665,0.6995208859443665
105,1.0,0.0004136399074923247,0.0004136399074923247,0.0005,0.3199999928474426,0.6992204189300537,0.6992204189300537
106,1.0,0.00041064858669415116,0.00041064858669415116,0.0005,0.3199999928474426,0.6989035606384277,0.6989035606384277
107,1.0,0.0004075261822436005,0.0004075261822436005,0.00025,0.3199999928474426,0.6986950635910034,0.6986950635910034
108,1.0,0.0004059120547026396,0.0004059120547026396,0.00025,0.33000001311302185,0.6984876394271851,0.6984876394271851
109,1.0,0.00040442406316287816,0.00040442406316287816,0.00025,0.33000001311302185,0.6982588171958923,0.6982588171958923
110,1.0,0.0004029884876217693,0.0004029884876217693,0.00025,0.3400000035762787,0.6980441808700562,0.6980441808700562
111,1.0,0.00040125742089003325,0.00040125742089003325,0.00025,0.3499999940395355,0.697853684425354,0.697853684425354
112,1.0,0.00039973846287466586,0.00039973846287466586,0.00025,0.36000001430511475,0.6976631283760071,0.6976631283760071
113,1.0,0.00039834939525462687,0.00039834939525462687,0.00025,0.36000001430511475,0.6974798440933228,0.6974798440933228
114,1.0,0.0003967017401009798,0.0003967017401009798,0.00025,0.4000000059604645,0.6973075866699219,0.6973075866699219
115,1.0,0.00039533525705337524,0.00039533525705337524,0.00025,0.38999998569488525,0.6971370577812195,0.6971370577812195
116,1.0,0.00039395326166413724,0.00039395326166413724,0.00025,0.38999998569488525,0.6969636678695679,0.6969636678695679
117,1.0,0.0003925439086742699,0.0003925439086742699,0.00025,0.38999998569488525,0.6968035101890564,0.6968035101890564
118,1.0,0.00039096298860386014,0.00039096298860386014,0.00025,0.4000000059604645,0.6966620683670044,0.6966620683670044
119,1.0,0.0003895786649081856,0.0003895786649081856,0.00025,0.38999998569488525,0.6965396404266357,0.6965396404266357
120,1.0,0.00038823363138362765,0.00038823363138362765,0.00025,0.4000000059604645,0.6963737607002258,0.6963737607002258
121,1.0,0.0003868553030770272,0.0003868553030770272,0.00025,0.4099999964237213,0.6962299942970276,0.6962299942970276
122,1.0,0.00038542691618204117,0.00038542691618204117,0.00025,0.41999998688697815,0.6961104869842529,0.6961104869842529
123,1.0,0.00038400207995437086,0.00038400207995437086,0.00025,0.4300000071525574,0.6959778666496277,0.6959778666496277
124,1.0,0.000382491503842175,0.000382491503842175,0.00025,0.44999998807907104,0.695864200592041,0.695864200592041
125,1.0,0.00038113229675218463,0.00038113229675218463,0.00025,0.4699999988079071,0.6957598924636841,0.6957598924636841
126,1.0,0.000379843229893595,0.000379843229893595,0.00025,0.4699999988079071,0.6956626772880554,0.6956626772880554
127,1.0,0.0003783802967518568,0.0003783802967518568,0.00025,0.4699999988079071,0.6955850124359131,0.6955850124359131
128,1.0,0.00037700191023759544,0.00037700191023759544,0.00025,0.49000000953674316,0.6954956650733948,0.6954956650733948
129,1.0,0.000375698582502082,0.000375698582502082,0.00025,0.5099999904632568,0.6954284906387329,0.6954284906387329
130,1.0,0.0003744166751857847,0.0003744166751857847,0.00025,0.5099999904632568,0.6953621506690979,0.6953621506690979
131,1.0,0.00037304896977730095,0.00037304896977730095,0.00025,0.5099999904632568,0.6952970623970032,0.6952970623970032
132,1.0,0.00037160617648623884,0.00037160617648623884,0.00025,0.5099999904632568,0.6952363848686218,0.6952363848686218
133,1.0,0.00037032068939879537,0.00037032068939879537,0.00025,0.5099999904632568,0.695183277130127,0.695183277130127
134,1.0,0.00036894463119097054,0.00036894463119097054,0.00025,0.5,0.6951536536216736,0.6951536536216736
135,1.0,0.0003677830391097814,0.0003677830391097814,0.00025,0.5099999904632568,0.6951600909233093,0.6951600909233093
136,1.0,0.0003664355317596346,0.0003664355317596346,0.00025,0.5099999904632568,0.6951342821121216,0.6951342821121216
137,1.0,0.00036511183134280145,0.00036511183134280145,0.00025,0.5099999904632568,0.695137619972229,0.695137619972229
138,1.0,0.0003637857735157013,0.0003637857735157013,0.00025,0.5099999904632568,0.6951684355735779,0.6951684355735779
139,1.0,0.000362513295840472,0.000362513295840472,0.00025,0.5099999904632568,0.6951820850372314,0.6951820850372314
140,1.0,0.0003610717540141195,0.0003610717540141195,0.00025,0.5099999904632568,0.6952007412910461,0.6952007412910461
141,1.0,0.00035981598193757236,0.00035981598193757236,0.00025,0.5099999904632568,0.695242702960968,0.695242702960968
142,1.0,0.00035850662970915437,0.00035850662970915437,0.00025,0.5199999809265137,0.6953032612800598,0.6953032612800598
143,1.0,0.0003572282148525119,0.0003572282148525119,0.00025,0.5099999904632568,0.695341169834137,0.695341169834137
144,1.0,0.0003559962788131088,0.0003559962788131088,0.00025,0.5099999904632568,0.6954333782196045,0.6954333782196045
145,1.0,0.0003546797961462289,0.0003546797961462289,0.00025,0.5099999904632568,0.6955306529998779,0.6955306529998779
146,1.0,0.0003534657007548958,0.0003534657007548958,0.00025,0.5099999904632568,0.6956342458724976,0.6956342458724976
147,1.0,0.0003521194448694587,0.0003521194448694587,0.00025,0.5099999904632568,0.6957743167877197,0.6957743167877197
148,1.0,0.0003508100635372102,0.0003508100635372102,0.00025,0.5,0.6958816051483154,0.6958816051483154
149,1.0,0.0003494411357678473,0.0003494411357678473,0.00025,0.5,0.6960350871086121,0.6960350871086121
150,1.0,0.0003481734311208129,0.0003481734311208129,0.00025,0.5099999904632568,0.6961969137191772,0.6961969137191772
151,1.0,0.00034688907908275723,0.00034688907908275723,0.00025,0.5099999904632568,0.6963631510734558,0.6963631510734558
152,1.0,0.0003456702106632292,0.0003456702106632292,0.00025,0.5099999904632568,0.6965736150741577,0.6965736150741577
153,1.0,0.0003445860056672245,0.0003445860056672245,0.00025,0.5099999904632568,0.6967880725860596,0.6967880725860596
154,1.0,0.000343367166351527,0.000343367166351527,0.00025,0.5099999904632568,0.6969895958900452,0.6969895958900452
155,1.0,0.0003421971923671663,0.0003421971923671663,0.00025,0.5099999904632568,0.6972553133964539,0.6972553133964539
156,1.0,0.00034096877789124846,0.00034096877789124846,0.00025,0.5199999809265137,0.6975277662277222,0.6975277662277222
157,1.0,0.00033978448482230306,0.00033978448482230306,0.000125,0.5099999904632568,0.6979293823242188,0.6979293823242188
158,1.0,0.00033911605714820325,0.00033911605714820325,0.000125,0.5099999904632568,0.6983401775360107,0.6983401775360107
159,1.0,0.0003385501040611416,0.0003385501040611416,0.000125,0.5099999904632568,0.6987587809562683,0.6987587809562683
160,1.0,0.000337865058099851,0.000337865058099851,0.000125,0.49000000953674316,0.6992448568344116,0.6992448568344116
161,1.0,0.0003372764331288636,0.0003372764331288636,0.000125,0.46000000834465027,0.699709415435791,0.699709415435791
162,1.0,0.00033662113128229976,0.00033662113128229976,0.000125,0.46000000834465027,0.7001847624778748,0.7001847624778748
163,1.0,0.000336086202878505,0.000336086202878505,0.000125,0.46000000834465027,0.7006906867027283,0.7006906867027283
164,1.0,0.0003354832879267633,0.0003354832879267633,0.000125,0.4699999988079071,0.7012388706207275,0.7012388706207275
165,1.0,0.0003348923346493393,0.0003348923346493393,0.000125,0.4399999976158142,0.7018137574195862,0.7018137574195862
166,1.0,0.00033429780160076916,0.00033429780160076916,0.000125,0.4399999976158142,0.7024147510528564,0.7024147510528564
167,1.0,0.0003336448862683028,0.0003336448862683028,0.000125,0.4300000071525574,0.7030302286148071,0.7030302286148071
168,1.0,0.0003330456092953682,0.0003330456092953682,0.000125,0.41999998688697815,0.7036910057067871,0.7036910057067871
169,1.0,0.00033248678664676845,0.00033248678664676845,0.000125,0.41999998688697815,0.7043675184249878,0.7043675184249878
170,1.0,0.0003318922535981983,0.0003318922535981983,0.000125,0.38999998569488525,0.7050744891166687,0.7050744891166687
171,1.0,0.00033128817449323833,0.00033128817449323833,0.000125,0.38999998569488525,0.7058205604553223,0.7058205604553223
172,1.0,0.00033069244818761945,0.00033069244818761945,0.000125,0.38999998569488525,0.7066048383712769,0.7066048383712769
173,1.0,0.0003300966927781701,0.0003300966927781701,0.000125,0.3799999952316284,0.7073819637298584,0.7073819637298584
174,1.0,0.00032953915069811046,0.00032953915069811046,0.000125,0.3799999952316284,0.7081759572029114,0.7081759572029114
175,1.0,0.0003289469750598073,0.0003289469750598073,0.000125,0.3799999952316284,0.7090260982513428,0.7090260982513428
176,1.0,0.00032838695915415883,0.00032838695915415883,0.000125,0.3799999952316284,0.7099217176437378,0.7099217176437378
177,1.0,0.000327804300468415,0.000327804300468415,0.000125,0.3799999952316284,0.7108619809150696,0.7108619809150696
178,1.0,0.0003272145695518702,0.0003272145695518702,0.000125,0.3799999952316284,0.7117590308189392,0.7117590308189392
179,1.0,0.0003267248685006052,0.0003267248685006052,0.000125,0.36000001430511475,0.7127448916435242,0.7127448916435242
180,1.0,0.00032615766394883394,0.00032615766394883394,0.000125,0.36000001430511475,0.7137840986251831,0.7137840986251831
181,1.0,0.00032548807212151587,0.00032548807212151587,0.000125,0.3499999940395355,0.7148606777191162,0.7148606777191162
182,1.0,0.00032488518627360463,0.00032488518627360463,0.000125,0.3499999940395355,0.7159177660942078,0.7159177660942078
183,1.0,0.0003243013343308121,0.0003243013343308121,0.000125,0.3499999940395355,0.7170576453208923,0.7170576453208923
184,1.0,0.0003238116332795471,0.0003238116332795471,0.000125,0.3499999940395355,0.7182263135910034,0.7182263135910034
185,1.0,0.0003231694281566888,0.0003231694281566888,0.000125,0.3499999940395355,0.7194593548774719,0.7194593548774719
186,1.0,0.0003226343833375722,0.0003226343833375722,0.000125,0.3499999940395355,0.7206798791885376,0.7206798791885376
187,1.0,0.00032205303432419896,0.00032205303432419896,0.000125,0.3499999940395355,0.7219789028167725,0.7219789028167725
188,1.0,0.0003213941236026585,0.0003213941236026585,0.000125,0.3499999940395355,0.7233378887176514,0.7233378887176514
189,1.0,0.00032077095238491893,0.00032077095238491893,0.000125,0.3499999940395355,0.72469162940979,0.72469162940979
190,1.0,0.00032022525556385517,0.00032022525556385517,0.000125,0.3499999940395355,0.7260653972625732,0.7260653972625732
191,1.0,0.000319703365676105,0.000319703365676105,0.000125,0.3400000035762787,0.7275201678276062,0.7275201678276062
192,1.0,0.00031901468173600733,0.00031901468173600733,0.000125,0.3400000035762787,0.7290545105934143,0.7290545105934143
193,1.0,0.0003183534136041999,0.0003183534136041999,0.000125,0.3400000035762787,0.7306143045425415,0.7306143045425415
194,1.0,0.0003177969774696976,0.0003177969774696976,0.000125,0.3400000035762787,0.7321373820304871,0.7321373820304871
195,1.0,0.00031720957485958934,0.00031720957485958934,0.000125,0.3400000035762787,0.7337512373924255,0.7337512373924255
196,1.0,0.00031668771407566965,0.00031668771407566965,0.000125,0.3499999940395355,0.7355000376701355,0.7355000376701355
197,1.0,0.00031601570663042367,0.00031601570663042367,0.000125,0.3400000035762787,0.7372074127197266,0.7372074127197266
198,1.0,0.0003155069425702095,0.0003155069425702095,0.000125,0.3400000035762787,0.7390477657318115,0.7390477657318115
199,1.0,0.0003150041156914085,0.0003150041156914085,0.000125,0.3400000035762787,0.7408889532089233,0.7408889532089233
200,1.0,0.0003143714275211096,0.0003143714275211096,0.000125,0.3400000035762787,0.7428261637687683,0.7428261637687683
201,1.0,0.00031383047462441027,0.00031383047462441027,0.000125,0.3400000035762787,0.7447091937065125,0.7447091937065125
202,1.0,0.0003132240381091833,0.0003132240381091833,0.000125,0.33000001311302185,0.7466169595718384,0.7466169595718384
203,1.0,0.0003127104719169438,0.0003127104719169438,0.000125,0.33000001311302185,0.7486242651939392,0.7486242651939392
204,1.0,0.00031213019974529743,0.00031213019974529743,0.000125,0.33000001311302185,0.750730037689209,0.750730037689209
205,1.0,0.0003116047300864011,0.0003116047300864011,0.000125,0.33000001311302185,0.752870500087738,0.752870500087738
206,1.0,0.0003110578400082886,0.0003110578400082886,0.000125,0.33000001311302185,0.755024254322052,0.755024254322052
207,1.0,0.0003104549250565469,0.0003104549250565469,1e-04,0.33000001311302185,0.7573698163032532,0.7573698163032532
208,1.0,0.00030996996792964637,0.00030996996792964637,1e-04,0.3199999928474426,0.759834349155426,0.759834349155426
209,1.0,0.0003094910061918199,0.0003094910061918199,1e-04,0.3100000023841858,0.762259304523468,0.762259304523468
210,1.0,0.0003090608224738389,0.0003090608224738389,1e-04,0.3100000023841858,0.764763593673706,0.764763593673706
211,1.0,0.0003086866927333176,0.0003086866927333176,1e-04,0.3100000023841858,0.7672964334487915,0.7672964334487915
212,1.0,0.00030810764292255044,0.00030810764292255044,1e-04,0.3199999928474426,0.7698127031326294,0.7698127031326294
213,1.0,0.00030763575341552496,0.00030763575341552496,1e-04,0.3199999928474426,0.7723844647407532,0.7723844647407532
214,1.0,0.00030721633811481297,0.00030721633811481297,1e-04,0.3199999928474426,0.7750312685966492,0.7750312685966492
215,1.0,0.0003067564102821052,0.0003067564102821052,1e-04,0.3199999928474426,0.7777422070503235,0.7777422070503235
216,1.0,0.0003063703770749271,0.0003063703770749271,1e-04,0.3199999928474426,0.7806246280670166,0.7806246280670166
217,1.0,0.0003058473230339587,0.0003058473230339587,1e-04,0.3199999928474426,0.7834104299545288,0.7834104299545288
218,1.0,0.00030537552083842456,0.00030537552083842456,1e-04,0.3199999928474426,0.7863420248031616,0.7863420248031616
219,1.0,0.0003049524675589055,0.0003049524675589055,1e-04,0.3199999928474426,0.7893850803375244,0.7893850803375244
220,1.0,0.00030445680022239685,0.00030445680022239685,1e-04,0.3199999928474426,0.7924360632896423,0.7924360632896423
221,1.0,0.0003040909650735557,0.0003040909650735557,1e-04,0.3199999928474426,0.7957194447517395,0.7957194447517395
222,1.0,0.00030361913377419114,0.00030361913377419114,1e-04,0.3199999928474426,0.7988648414611816,0.7988648414611816
223,1.0,0.0003031544329132885,0.0003031544329132885,1e-04,0.3100000023841858,0.8020224571228027,0.8020224571228027
224,1.0,0.00030263850931078196,0.00030263850931078196,1e-04,0.3100000023841858,0.805497407913208,0.805497407913208
225,1.0,0.0003021690354216844,0.0003021690354216844,1e-04,0.3100000023841858,0.8089137077331543,0.8089137077331543
226,1.0,0.00030175078427419066,0.00030175078427419066,1e-04,0.3100000023841858,0.812389075756073,0.812389075756073
227,1.0,0.00030128846992738545,0.00030128846992738545,1e-04,0.3100000023841858,0.8158902525901794,0.8158902525901794
228,1.0,0.0003008047060575336,0.0003008047060575336,1e-04,0.3100000023841858,0.8194425702095032,0.8194425702095032
229,1.0,0.0003003316232934594,0.0003003316232934594,1e-04,0.3100000023841858,0.8229526281356812,0.8229526281356812
230,1.0,0.0002998979762196541,0.0002998979762196541,1e-04,0.3100000023841858,0.8264901041984558,0.8264901041984558
231,1.0,0.000299501174595207,0.000299501174595207,1e-04,0.3100000023841858,0.830294668674469,0.830294668674469
232,1.0,0.00029897928470745683,0.00029897928470745683,1e-04,0.3100000023841858,0.8340945243835449,0.8340945243835449
233,1.0,0.00029855151660740376,0.00029855151660740376,1e-04,0.3100000023841858,0.8378475308418274,0.8378475308418274
234,1.0,0.0002981082652695477,0.0002981082652695477,1e-04,0.3100000023841858,0.8416674137115479,0.8416674137115479
235,1.0,0.0002976328250952065,0.0002976328250952065,1e-04,0.3100000023841858,0.8454635739326477,0.8454635739326477
236,1.0,0.000297197955660522,0.000297197955660522,1e-04,0.3100000023841858,0.8493282198905945,0.8493282198905945
237,1.0,0.0002968094777315855,0.0002968094777315855,1e-04,0.3100000023841858,0.8534198999404907,0.8534198999404907
238,1.0,0.00029634241946041584,0.00029634241946041584,1e-04,0.3100000023841858,0.8575993180274963,0.8575993180274963
239,1.0,0.0002958908153232187,0.0002958908153232187,1e-04,0.3100000023841858,0.861803412437439,0.861803412437439
240,1.0,0.00029545591678470373,0.00029545591678470373,1e-04,0.3100000023841858,0.8661028146743774,0.8661028146743774
241,1.0,0.0002950305351987481,0.0002950305351987481,1e-04,0.3100000023841858,0.8704098463058472,0.8704098463058472
242,1.0,0.00029460276709869504,0.00029460276709869504,1e-04,0.3100000023841858,0.8748547434806824,0.8748547434806824
243,1.0,0.00029424767126329243,0.00029424767126329243,1e-04,0.3100000023841858,0.8792405128479004,0.8792405128479004
244,1.0,0.0002937877143267542,0.0002937877143267542,1e-04,0.3100000023841858,0.8839275240898132,0.8839275240898132
245,1.0,0.00029337903833948076,0.00029337903833948076,1e-04,0.3100000023841858,0.8882402777671814,0.8882402777671814
246,1.0,0.00029291550163179636,0.00029291550163179636,1e-04,0.3100000023841858,0.8927433490753174,0.8927433490753174
247,1.0,0.0002924936998169869,0.0002924936998169869,1e-04,0.33000001311302185,0.8972946405410767,0.8972946405410767
248,1.0,0.00029201232246123254,0.00029201232246123254,1e-04,0.33000001311302185,0.9019450545310974,0.9019450545310974
249,1.0,0.00029153446666896343,0.00029153446666896343,1e-04,0.33000001311302185,0.9066548943519592,0.9066548943519592
250,1.0,0.00029107453883625567,0.00029107453883625567,1e-04,0.33000001311302185,0.9113643765449524,0.9113643765449524
251,1.0,0.00029069563606753945,0.00029069563606753945,1e-04,0.33000001311302185,0.9160962104797363,0.9160962104797363
252,1.0,0.00029021903173998,0.00029021903173998,1e-04,0.3400000035762787,0.9207122325897217,0.9207122325897217
253,1.0,0.0002897805243264884,0.0002897805243264884,1e-04,0.3400000035762787,0.9258037805557251,0.9258037805557251
254,1.0,0.0002893098571803421,0.0002893098571803421,1e-04,0.3400000035762787,0.9308547973632812,0.9308547973632812
255,1.0,0.00028880222816951573,0.00028880222816951573,1e-04,0.3400000035762787,0.935710608959198,0.935710608959198
256,1.0,0.0002883613633457571,0.0002883613633457571,1e-04,0.3400000035762787,0.9407655596733093,0.9407655596733093
257,1.0,0.0002879407547879964,0.0002879407547879964,1e-04,0.3400000035762787,0.9457225799560547,0.9457225799560547
258,1.0,0.0002875022473745048,0.0002875022473745048,1e-04,0.3400000035762787,0.9509671926498413,0.9509671926498413
259,1.0,0.0002870578027796,0.0002870578027796,1e-04,0.3400000035762787,0.9558342695236206,0.9558342695236206
260,1.0,0.00028661813121289015,0.00028661813121289015,1e-04,0.3400000035762787,0.9610558152198792,0.9610558152198792
261,1.0,0.0002861999091692269,0.0002861999091692269,1e-04,0.3400000035762787,0.9659807682037354,0.9659807682037354
262,1.0,0.0002857673680409789,0.0002857673680409789,1e-04,0.3400000035762787,0.9705841541290283,0.9705841541290283
263,1.0,0.000285347894532606,0.000285347894532606,1e-04,0.3400000035762787,0.9755347371101379,0.9755347371101379
264,1.0,0.0002848903532139957,0.0002848903532139957,1e-04,0.3400000035762787,0.9804000854492188,0.9804000854492188
265,1.0,0.00028444352210499346,0.00028444352210499346,1e-04,0.3400000035762787,0.9854743480682373,0.9854743480682373
266,1.0,0.0002839275693986565,0.0002839275693986565,1e-04,0.3400000035762787,0.990732729434967,0.990732729434967
267,1.0,0.00028348428895697,0.00028348428895697,1e-04,0.3400000035762787,0.9958318471908569,0.9958318471908569
268,1.0,0.0002830362936947495,0.0002830362936947495,1e-04,0.3499999940395355,1.0008279085159302,1.0008279085159302
269,1.0,0.0002826108830049634,0.0002826108830049634,1e-04,0.3499999940395355,1.005730390548706,1.005730390548706
270,1.0,0.0002822236274369061,0.0002822236274369061,1e-04,0.3499999940395355,1.0109986066818237,1.0109986066818237
271,1.0,0.0002817791828420013,0.0002817791828420013,1e-04,0.36000001430511475,1.015945315361023,1.015945315361023
272,1.0,0.00028141814982518554,0.00028141814982518554,1e-04,0.36000001430511475,1.0214016437530518,1.0214016437530518
273,1.0,0.00028103680233471096,0.00028103680233471096,1e-04,0.36000001430511475,1.0264695882797241,1.0264695882797241
274,1.0,0.00028054346330463886,0.00028054346330463886,1e-04,0.36000001430511475,1.031380295753479,1.031380295753479
275,1.0,0.00028011808171868324,0.00028011808171868324,1e-04,0.36000001430511475,1.036463737487793,1.036463737487793
276,1.0,0.0002796950866468251,0.0002796950866468251,1e-04,0.36000001430511475,1.0413048267364502,1.0413048267364502
277,1.0,0.0002793328312691301,0.0002793328312691301,1e-04,0.36000001430511475,1.0466725826263428,1.0466725826263428
278,1.0,0.0002789229329209775,0.0002789229329209775,1e-04,0.3499999940395355,1.051501750946045,1.051501750946045
279,1.0,0.00027848922763951123,0.00027848922763951123,1e-04,0.3499999940395355,1.0565471649169922,1.0565471649169922
280,1.0,0.0002780352078843862,0.0002780352078843862,1e-04,0.3499999940395355,1.0615330934524536,1.0615330934524536
281,1.0,0.00027761340606957674,0.00027761340606957674,1e-04,0.3499999940395355,1.0664658546447754,1.0664658546447754
282,1.0,0.00027716776821762323,0.00027716776821762323,1e-04,0.3499999940395355,1.0714123249053955,1.0714123249053955
283,1.0,0.00027671613497659564,0.00027671613497659564,1e-04,0.3499999940395355,1.076407790184021,1.076407790184021
284,1.0,0.00027628717361949384,0.00027628717361949384,1e-04,0.3499999940395355,1.0811785459518433,1.0811785459518433
285,1.0,0.0002758772752713412,0.0002758772752713412,1e-04,0.3499999940395355,1.0861198902130127,1.0861198902130127
286,1.0,0.00027544592740014195,0.00027544592740014195,1e-04,0.3499999940395355,1.090977430343628,1.090977430343628
287,1.0,0.0002749859995674342,0.0002749859995674342,1e-04,0.3499999940395355,1.0952852964401245,1.0952852964401245
288,1.0,0.0002746320969890803,0.0002746320969890803,1e-04,0.3499999940395355,1.099876880645752,1.099876880645752
289,1.0,0.0002741566568147391,0.0002741566568147391,1e-04,0.3499999940395355,1.104331612586975,1.104331612586975
290,1.0,0.0002738003677222878,0.0002738003677222878,1e-04,0.3499999940395355,1.1086314916610718,1.1086314916610718
291,1.0,0.00027342859539203346,0.00027342859539203346,1e-04,0.3499999940395355,1.1131685972213745,1.1131685972213745
292,1.0,0.000272956705885008,0.000272956705885008,1e-04,0.3499999940395355,1.1177260875701904,1.1177260875701904
293,1.0,0.000272537290584296,0.000272537290584296,1e-04,0.3499999940395355,1.121671438217163,1.121671438217163
294,1.0,0.0002721106866374612,0.0002721106866374612,1e-04,0.3499999940395355,1.1257805824279785,1.1257805824279785
295,1.0,0.00027167575899511576,0.00027167575899511576,1e-04,0.3499999940395355,1.1296330690383911,1.1296330690383911
296,1.0,0.0002712419955059886,0.0002712419955059886,1e-04,0.3499999940395355,1.1336228847503662,1.1336228847503662
297,1.0,0.0002708249376155436,0.0002708249376155436,1e-04,0.3499999940395355,1.1377816200256348,1.1377816200256348
298,1.0,0.00027038881671614945,0.00027038881671614945,1e-04,0.3499999940395355,1.1414313316345215,1.1414313316345215
299,1.0,0.00026995150255970657,0.00026995150255970657,1e-04,0.3499999940395355,1.1455799341201782,1.1455799341201782
300,1.0,0.00026953802444040775,0.00026953802444040775,1e-04,0.3499999940395355,1.148878574371338,1.148878574371338
301,1.0,0.00026915789931081235,0.00026915789931081235,1e-04,0.3499999940395355,1.1526211500167847,1.1526211500167847
302,1.0,0.0002687396190594882,0.0002687396190594882,1e-04,0.3499999940395355,1.1559507846832275,1.1559507846832275
303,1.0,0.0002683678758330643,0.0002683678758330643,1e-04,0.3499999940395355,1.159090518951416,1.159090518951416
304,1.0,0.000267915049334988,0.000267915049334988,1e-04,0.3499999940395355,1.1624674797058105,1.1624674797058105
305,1.0,0.0002675801806617528,0.0002675801806617528,1e-04,0.3499999940395355,1.1658257246017456,1.1658257246017456
306,1.0,0.00026716553838923573,0.00026716553838923573,1e-04,0.3499999940395355,1.1687012910842896,1.1687012910842896
307,1.0,0.00026675444678403437,0.00026675444678403437,1e-04,0.3499999940395355,1.1719977855682373,1.1719977855682373
308,1.0,0.00026633977540768683,0.00026633977540768683,1e-04,0.3499999940395355,1.17560613155365,1.17560613155365
309,1.0,0.0002658666926436126,0.0002658666926436126,1e-04,0.3499999940395355,1.1781240701675415,1.1781240701675415
310,1.0,0.0002654555719345808,0.0002654555719345808,1e-04,0.3499999940395355,1.1804665327072144,1.1804665327072144
311,1.0,0.0002649717789608985,0.0002649717789608985,1e-04,0.3499999940395355,1.183097243309021,1.183097243309021
312,1.0,0.0002645916538313031,0.0002645916538313031,1e-04,0.3400000035762787,1.1854926347732544,1.1854926347732544
313,1.0,0.00026413530576974154,0.00026413530576974154,1e-04,0.3400000035762787,1.187187671661377,1.187187671661377
314,1.0,0.0002637622819747776,0.0002637622819747776,1e-04,0.3400000035762787,1.189306378364563,1.189306378364563
315,1.0,0.000263376219663769,0.000263376219663769,1e-04,0.3400000035762787,1.1909067630767822,1.1909067630767822
316,1.0,0.0002629484224598855,0.0002629484224598855,1e-04,0.3400000035762787,1.1929824352264404,1.1929824352264404
317,1.0,0.00026256474666297436,0.00026256474666297436,1e-04,0.3400000035762787,1.195298194885254,1.195298194885254
318,1.0,0.0002621619787532836,0.0002621619787532836,1e-04,0.3400000035762787,1.1966338157653809,1.1966338157653809
319,1.0,0.0002617604041006416,0.0002617604041006416,1e-04,0.3400000035762787,1.1977450847625732,1.1977450847625732
320,1.0,0.0002613326068967581,0.0002613326068967581,1e-04,0.3400000035762787,1.1986892223358154,1.1986892223358154
321,1.0,0.00026090603205375373,0.00026090603205375373,1e-04,0.3400000035762787,1.2003247737884521,1.2003247737884521
322,1.0,0.000260435335803777,0.000260435335803777,1e-04,0.3400000035762787,1.2013651132583618,1.2013651132583618
323,1.0,0.00026005879044532776,0.00026005879044532776,1e-04,0.3400000035762787,1.2026090621948242,1.2026090621948242
324,1.0,0.00025963812367990613,0.00025963812367990613,1e-04,0.3400000035762787,1.2032145261764526,1.2032145261764526
325,1.0,0.00025924964575096965,0.00025924964575096965,1e-04,0.3400000035762787,1.2039246559143066,1.2039246559143066
326,1.0,0.0002588754869066179,0.0002588754869066179,1e-04,0.3400000035762787,1.2046712636947632,1.2046712636947632
327,1.0,0.0002584762987680733,0.0002584762987680733,1e-04,0.3400000035762787,1.2044697999954224,1.2044697999954224
328,1.0,0.00025811881641857326,0.00025811881641857326,1e-04,0.3400000035762787,1.2044548988342285,1.2044548988342285
329,1.0,0.00025773272500373423,0.00025773272500373423,1e-04,0.3400000035762787,1.2043943405151367,1.2043943405151367
330,1.0,0.0002572954399511218,0.0002572954399511218,1e-04,0.3400000035762787,1.2045660018920898,1.2045660018920898
331,1.0,0.0002569188945926726,0.0002569188945926726,1e-04,0.3400000035762787,1.2049084901809692,1.2049084901809692
332,1.0,0.00025654351338744164,0.00025654351338744164,1e-04,0.3400000035762787,1.2043768167495728,1.2043768167495728
333,1.0,0.00025614668265916407,0.00025614668265916407,1e-04,0.3400000035762787,1.2039666175842285,1.2039666175842285
334,1.0,0.0002557260449975729,0.0002557260449975729,1e-04,0.3400000035762787,1.2025372982025146,1.2025372982025146
335,1.0,0.000255319697316736,0.000255319697316736,1e-04,0.3400000035762787,1.202967882156372,1.202967882156372
336,1.0,0.0002549359924159944,0.0002549359924159944,1e-04,0.3400000035762787,1.202048897743225,1.202048897743225
337,1.0,0.0002545344177633524,0.0002545344177633524,1e-04,0.3400000035762787,1.2007272243499756,1.2007272243499756
338,1.0,0.0002541602880228311,0.0002541602880228311,1e-04,0.3400000035762787,1.1996383666992188,1.1996383666992188
339,1.0,0.00025372172240167856,0.00025372172240167856,1e-04,0.3400000035762787,1.1981428861618042,1.1981428861618042
340,1.0,0.00025334040401503444,0.00025334040401503444,1e-04,0.3400000035762787,1.1963515281677246,1.1963515281677246
341,1.0,0.00025296505191363394,0.00025296505191363394,1e-04,0.3400000035762787,1.1947014331817627,1.1947014331817627
342,1.0,0.0002525622257962823,0.0002525622257962823,1e-04,0.3400000035762787,1.1923584938049316,1.1923584938049316
343,1.0,0.0002521630667615682,0.0002521630667615682,1e-04,0.3400000035762787,1.1906814575195312,1.1906814575195312
344,1.0,0.00025178174837492406,0.00025178174837492406,1e-04,0.3400000035762787,1.188742756843567,1.188742756843567
345,1.0,0.00025139801437035203,0.00025139801437035203,1e-04,0.3400000035762787,1.1859854459762573,1.1859854459762573
346,1.0,0.00025097737670876086,0.00025097737670876086,1e-04,0.3499999940395355,1.183509111404419,1.183509111404419
347,1.0,0.0002506055752746761,0.0002506055752746761,1e-04,0.3499999940395355,1.1809765100479126,1.1809765100479126
348,1.0,0.00025024928618222475,0.00025024928618222475,1e-04,0.3499999940395355,1.1778427362442017,1.1778427362442017
349,1.0,0.0002499251568224281,0.0002499251568224281,1e-04,0.3499999940395355,1.174869179725647,1.174869179725647
350,1.0,0.00024952238891273737,0.00024952238891273737,1e-04,0.3400000035762787,1.1712546348571777,1.1712546348571777
351,1.0,0.00024913871311582625,0.00024913871311582625,1e-04,0.3400000035762787,1.1677030324935913,1.1677030324935913
352,1.0,0.00024871210916899145,0.00024871210916899145,1e-04,0.3400000035762787,1.1640347242355347,1.1640347242355347
353,1.0,0.0002483367279637605,0.0002483367279637605,1e-04,0.3400000035762787,1.1605862379074097,1.1605862379074097
354,1.0,0.00024795893114060163,0.00024795893114060163,1e-04,0.3400000035762787,1.1575608253479004,1.1575608253479004
355,1.0,0.00024760267115198076,0.00024760267115198076,1e-04,0.3400000035762787,1.1547216176986694,1.1547216176986694
356,1.0,0.0002472439664416015,0.0002472439664416015,1e-04,0.3499999940395355,1.1505160331726074,1.1505160331726074
357,1.0,0.00024677684996277094,0.00024677684996277094,1e-04,0.36000001430511475,1.145419716835022,1.145419716835022
358,1.0,0.00024640385527163744,0.00024640385527163744,1e-04,0.3700000047683716,1.1407482624053955,1.1407482624053955
359,1.0,0.0002460308896843344,0.0002460308896843344,1e-04,0.3799999952316284,1.1365443468093872,1.1365443468093872
360,1.0,0.00024566741194576025,0.00024566741194576025,1e-04,0.38999998569488525,1.1324267387390137,1.1324267387390137
361,1.0,0.00024537424906156957,0.00024537424906156957,1e-04,0.4000000059604645,1.1279624700546265,1.1279624700546265
362,1.0,0.00024497148115187883,0.00024497148115187883,1e-04,0.4000000059604645,1.123666524887085,1.123666524887085
363,1.0,0.00024457345716655254,0.00024457345716655254,1e-04,0.4099999964237213,1.118120789527893,1.118120789527893
364,1.0,0.00024416588712483644,0.00024416588712483644,1e-04,0.4099999964237213,1.1134675741195679,1.1134675741195679
365,1.0,0.0002437583898426965,0.0002437583898426965,1e-04,0.4099999964237213,1.1083568334579468,1.1083568334579468
366,1.0,0.00024338897492270917,0.00024338897492270917,1e-04,0.4099999964237213,1.1031615734100342,1.1031615734100342
367,1.0,0.0002430028689559549,0.0002430028689559549,1e-04,0.4099999964237213,1.0979180335998535,1.0979180335998535
368,1.0,0.00024261916405521333,0.00024261916405521333,1e-04,0.4399999976158142,1.0926343202590942,1.0926343202590942
369,1.0,0.00024226642563007772,0.00024226642563007772,1e-04,0.4399999976158142,1.087406873703003,1.087406873703003
370,1.0,0.00024192323326133192,0.00024192323326133192,1e-04,0.46000000834465027,1.081735372543335,1.081735372543335
371,1.0,0.00024155262508429587,0.00024155262508429587,1e-04,0.47999998927116394,1.0757745504379272,1.0757745504379272
372,1.0,0.00024112482788041234,0.00024112482788041234,1e-04,0.49000000953674316,1.0708130598068237,1.0708130598068237
373,1.0,0.0002407899737590924,0.0002407899737590924,1e-04,0.49000000953674316,1.0649203062057495,1.0649203062057495
374,1.0,0.0002403788676019758,0.0002403788676019758,1e-04,0.5099999904632568,1.0590389966964722,1.0590389966964722
375,1.0,0.00023998800315894186,0.00023998800315894186,1e-04,0.5299999713897705,1.0528535842895508,1.0528535842895508
376,1.0,0.00023961857368703932,0.00023961857368703932,1e-04,0.5400000214576721,1.0465664863586426,1.0465664863586426
377,1.0,0.00023928612063173205,0.00023928612063173205,1e-04,0.550000011920929,1.040371060371399,1.040371060371399
378,1.0,0.00023889403382781893,0.00023889403382781893,1e-04,0.550000011920929,1.03367280960083,1.03367280960083
379,1.0,0.0002385365660302341,0.0002385365660302341,1e-04,0.550000011920929,1.0268912315368652,1.0268912315368652
380,1.0,0.00023808013065718114,0.00023808013065718114,1e-04,0.5699999928474426,1.0195902585983276,1.0195902585983276
381,1.0,0.00023767974926158786,0.00023767974926158786,1e-04,0.5799999833106995,1.0139143466949463,1.0139143466949463
382,1.0,0.00023737225274089724,0.00023737225274089724,1e-04,0.5799999833106995,1.0077672004699707,1.0077672004699707
383,1.0,0.00023694806441199034,0.00023694806441199034,1e-04,0.5799999833106995,1.0014275312423706,1.0014275312423706
384,1.0,0.00023655121913179755,0.00023655121913179755,1e-04,0.5899999737739563,0.9953545331954956,0.9953545331954956
385,1.0,0.0002361758379265666,0.0002361758379265666,1e-04,0.5899999737739563,0.9893947839736938,0.9893947839736938
386,1.0,0.00023583621077705175,0.00023583621077705175,1e-04,0.6100000143051147,0.9836218357086182,0.9836218357086182
387,1.0,0.00023547276214230806,0.00023547276214230806,1e-04,0.6200000047683716,0.9773391485214233,0.9773391485214233
388,1.0,0.00023511047766078264,0.00023511047766078264,1e-04,0.6299999952316284,0.9701701402664185,0.9701701402664185
389,1.0,0.0002347351110074669,0.0002347351110074669,1e-04,0.6299999952316284,0.9644857048988342,0.9644857048988342
390,1.0,0.00023442647943738848,0.00023442647943738848,1e-04,0.6299999952316284,0.9580900073051453,0.9580900073051453
391,1.0,0.00023404869716614485,0.00023404869716614485,1e-04,0.6299999952316284,0.9522339105606079,0.9522339105606079
392,1.0,0.0002337126643396914,0.0002337126643396914,1e-04,0.6299999952316284,0.9462581872940063,0.9462581872940063
393,1.0,0.00023336707090493292,0.00023336707090493292,1e-04,0.6399999856948853,0.9404191374778748,0.9404191374778748
394,1.0,0.00023299882013816386,0.00023299882013816386,1e-04,0.6499999761581421,0.9345642924308777,0.9345642924308777
395,1.0,0.00023264490300789475,0.00023264490300789475,1e-04,0.6399999856948853,0.9277238249778748,0.9277238249778748
396,1.0,0.00023226358462125063,0.00023226358462125063,1e-04,0.6499999761581421,0.921222984790802,0.921222984790802
397,1.0,0.00023190486535895616,0.00023190486535895616,1e-04,0.6600000262260437,0.9152502417564392,0.9152502417564392
398,1.0,0.00023151401546783745,0.00023151401546783745,1e-04,0.6600000262260437,0.9085708856582642,0.9085708856582642
399,1.0,0.00023120058176573366,0.00023120058176573366,1e-04,0.6600000262260437,0.9020187854766846,0.9020187854766846
400,1.0,0.0002308645489392802,0.0002308645489392802,1e-04,0.6600000262260437,0.8959800004959106,0.8959800004959106
401,1.0,0.00023054277698975056,0.00023054277698975056,1e-04,0.6600000262260437,0.8906514644622803,0.8906514644622803
402,1.0,0.0002302234061062336,0.0002302234061062336,1e-04,0.6800000071525574,0.8843685984611511,0.8843685984611511
403,1.0,0.00022982894734013826,0.00022982894734013826,1e-04,0.6800000071525574,0.8785979747772217,0.8785979747772217
404,1.0,0.0002294976875418797,0.0002294976875418797,1e-04,0.6899999976158142,0.8728819489479065,0.8728819489479065
405,1.0,0.00022911517589818686,0.00022911517589818686,1e-04,0.6899999976158142,0.8669528365135193,0.8669528365135193
406,1.0,0.00022875407012179494,0.00022875407012179494,1e-04,0.699999988079071,0.8613632321357727,0.8613632321357727
407,1.0,0.0002284383081132546,0.0002284383081132546,1e-04,0.699999988079071,0.8564822673797607,0.8564822673797607
408,1.0,0.00022807363711763173,0.00022807363711763173,1e-04,0.699999988079071,0.850766658782959,0.850766658782959
409,1.0,0.00022773517412133515,0.00022773517412133515,1e-04,0.699999988079071,0.8452699184417725,0.8452699184417725
410,1.0,0.0002273335849167779,0.0002273335849167779,1e-04,0.699999988079071,0.8392021059989929,0.8392021059989929
411,1.0,0.0002269760734634474,0.0002269760734634474,1e-04,0.7099999785423279,0.8336118459701538,0.8336118459701538
412,1.0,0.00022661619004793465,0.00022661619004793465,1e-04,0.7099999785423279,0.8284540772438049,0.8284540772438049
413,1.0,0.0002262717898702249,0.0002262717898702249,1e-04,0.699999988079071,0.8232214450836182,0.8232214450836182
414,1.0,0.00022597624047193676,0.00022597624047193676,1e-04,0.699999988079071,0.8179647326469421,0.8179647326469421
415,1.0,0.0002256199368275702,0.0002256199368275702,1e-04,0.699999988079071,0.8127605319023132,0.8127605319023132
416,1.0,0.00022526360407937318,0.00022526360407937318,1e-04,0.699999988079071,0.807424783706665,0.807424783706665
417,1.0,0.00022496211749967188,0.00022496211749967188,1e-04,0.699999988079071,0.8028286099433899,0.8028286099433899
418,1.0,0.00022462369815912098,0.00022462369815912098,1e-04,0.699999988079071,0.798218846321106,0.798218846321106
419,1.0,0.00022430311946664006,0.00022430311946664006,1e-04,0.7099999785423279,0.7938076257705688,0.7938076257705688
420,1.0,0.00022399326553568244,0.00022399326553568244,1e-04,0.7099999785423279,0.7895617485046387,0.7895617485046387
421,1.0,0.0002236226573586464,0.0002236226573586464,1e-04,0.7099999785423279,0.785082221031189,0.785082221031189
422,1.0,0.00022330087085720152,0.00022330087085720152,1e-04,0.7200000286102295,0.7802146077156067,0.7802146077156067
423,1.0,0.00022290881315711886,0.00022290881315711886,1e-04,0.7200000286102295,0.7758671641349792,0.7758671641349792
424,1.0,0.00022251796326600015,0.00022251796326600015,1e-04,0.7200000286102295,0.7715107798576355,0.7715107798576355
425,1.0,0.00022218545200303197,0.00022218545200303197,1e-04,0.7200000286102295,0.767388105392456,0.767388105392456
426,1.0,0.00022182316752150655,0.00022182316752150655,1e-04,0.7200000286102295,0.7626478672027588,0.7626478672027588
427,1.0,0.00022153003374114633,0.00022153003374114633,1e-04,0.7400000095367432,0.7581344842910767,0.7581344842910767
428,1.0,0.00022120587527751923,0.00022120587527751923,1e-04,0.7400000095367432,0.7540717124938965,0.7540717124938965
429,1.0,0.00022085316595621407,0.00022085316595621407,1e-04,0.7400000095367432,0.7496143579483032,0.7496143579483032
430,1.0,0.00022049684775993228,0.00022049684775993228,1e-04,0.7400000095367432,0.7457086443901062,0.7457086443901062
431,1.0,0.0002201572060585022,0.0002201572060585022,1e-04,0.7400000095367432,0.7417394518852234,0.7417394518852234
432,1.0,0.00021983543410897255,0.00021983543410897255,1e-04,0.7400000095367432,0.7381581664085388,0.7381581664085388
433,1.0,0.00021948030916973948,0.00021948030916973948,1e-04,0.7400000095367432,0.7341907620429993,0.7341907620429993
434,1.0,0.00021919788559898734,0.00021919788559898734,1e-04,0.75,0.7296865582466125,0.7296865582466125
435,1.0,0.0002188558573834598,0.0002188558573834598,1e-04,0.75,0.7264496088027954,0.7264496088027954
436,1.0,0.00021857103274669498,0.00021857103274669498,1e-04,0.7599999904632568,0.7224054932594299,0.7224054932594299
437,1.0,0.0002182206662837416,0.0002182206662837416,1e-04,0.7599999904632568,0.7185570001602173,0.7185570001602173
438,1.0,0.00021788579761050642,0.00021788579761050642,1e-04,0.7599999904632568,0.7143179178237915,0.7143179178237915
439,1.0,0.00021752709290012717,0.00021752709290012717,1e-04,0.7599999904632568,0.7108379602432251,0.7108379602432251
440,1.0,0.00021719938376918435,0.00021719938376918435,1e-04,0.7699999809265137,0.7071484923362732,0.7071484923362732
441,1.0,0.00021684542298316956,0.00021684542298316956,1e-04,0.7699999809265137,0.703879714012146,0.703879714012146
442,1.0,0.00021649745758622885,0.00021649745758622885,1e-04,0.7699999809265137,0.7000653743743896,0.7000653743743896
443,1.0,0.00021616854064632207,0.00021616854064632207,1e-04,0.7699999809265137,0.6969345211982727,0.6969345211982727
444,1.0,0.0002158491697628051,0.0002158491697628051,1e-04,0.7699999809265137,0.692842960357666,0.692842960357666
445,1.0,0.00021550118981394917,0.00021550118981394917,1e-04,0.7699999809265137,0.6895168423652649,0.6895168423652649
446,1.0,0.00021514843683689833,0.00021514843683689833,1e-04,0.7699999809265137,0.686392605304718,0.686392605304718
447,1.0,0.00021483383898157626,0.00021483383898157626,1e-04,0.7699999809265137,0.6832607388496399,0.6832607388496399
448,1.0,0.00021450495114549994,0.00021450495114549994,1e-04,0.7699999809265137,0.6798141598701477,0.6798141598701477
449,1.0,0.0002141736331395805,0.0002141736331395805,1e-04,0.7799999713897705,0.6762845516204834,0.6762845516204834
450,1.0,0.00021386377920862287,0.00021386377920862287,1e-04,0.7699999809265137,0.6733139157295227,0.6733139157295227
451,1.0,0.0002135348622687161,0.0002135348622687161,1e-04,0.7699999809265137,0.6699761748313904,0.6699761748313904
452,1.0,0.00021316901256795973,0.00021316901256795973,1e-04,0.7699999809265137,0.6670796871185303,0.6670796871185303
453,1.0,0.00021282579109538347,0.00021282579109538347,1e-04,0.7699999809265137,0.6636922955513,0.6636922955513
454,1.0,0.00021249210112728179,0.00021249210112728179,1e-04,0.7699999809265137,0.6607677936553955,0.6607677936553955
455,1.0,0.00021215248852968216,0.00021215248852968216,1e-04,0.7799999713897705,0.6573778390884399,0.6573778390884399
456,1.0,0.00021185931109357625,0.00021185931109357625,1e-04,0.7799999713897705,0.6539652943611145,0.6539652943611145
457,1.0,0.00021154947171453387,0.00021154947171453387,1e-04,0.7699999809265137,0.6510604023933411,0.6510604023933411
458,1.0,0.00021125393686816096,0.00021125393686816096,1e-04,0.7699999809265137,0.648028552532196,0.648028552532196
459,1.0,0.00021086065680719912,0.00021086065680719912,1e-04,0.7699999809265137,0.6449960470199585,0.6449960470199585
460,1.0,0.0002105913299601525,0.0002105913299601525,1e-04,0.7699999809265137,0.641886293888092,0.641886293888092
461,1.0,0.00021026597823947668,0.00021026597823947668,1e-04,0.7699999809265137,0.6390131711959839,0.6390131711959839
462,1.0,0.00020989420590922236,0.00020989420590922236,1e-04,0.7699999809265137,0.6361095905303955,0.6361095905303955
463,1.0,0.00020959744870197028,0.00020959744870197028,1e-04,0.7699999809265137,0.6328571438789368,0.6328571438789368
464,1.0,0.00020926614524796605,0.00020926614524796605,1e-04,0.7699999809265137,0.6298896670341492,0.6298896670341492
465,1.0,0.00020890265295747668,0.00020890265295747668,1e-04,0.7699999809265137,0.627153754234314,0.627153754234314
466,1.0,0.00020863574172835797,0.00020863574172835797,1e-04,0.7699999809265137,0.6242643594741821,0.6242643594741821
467,1.0,0.0002083235012833029,0.0002083235012833029,1e-04,0.7699999809265137,0.6214232444763184,0.6214232444763184
468,1.0,0.000208070850931108,0.000208070850931108,1e-04,0.7699999809265137,0.6185863614082336,0.6185863614082336
469,1.0,0.00020771811250597239,0.00020771811250597239,1e-04,0.7699999809265137,0.6156061291694641,0.6156061291694641
470,1.0,0.00020740229228977114,0.00020740229228977114,1e-04,0.7699999809265137,0.612912654876709,0.612912654876709
471,1.0,0.00020707218209281564,0.00020707218209281564,1e-04,0.7699999809265137,0.6099851131439209,0.6099851131439209
472,1.0,0.00020675161795224994,0.00020675161795224994,1e-04,0.7699999809265137,0.6068887114524841,0.6068887114524841
473,1.0,0.00020647274504881352,0.00020647274504881352,1e-04,0.7699999809265137,0.6040974855422974,0.6040974855422974
474,1.0,0.00020614145614672452,0.00020614145614672452,1e-04,0.7699999809265137,0.6011868715286255,0.6011868715286255
475,1.0,0.00020581491116899997,0.00020581491116899997,1e-04,0.7699999809265137,0.5984739065170288,0.5984739065170288
476,1.0,0.00020552412024699152,0.00020552412024699152,1e-04,0.7900000214576721,0.595653772354126,0.595653772354126
477,1.0,0.000205236894544214,0.000205236894544214,1e-04,0.7900000214576721,0.5928775072097778,0.5928775072097778
478,1.0,0.00020492706971708685,0.00020492706971708685,1e-04,0.7900000214576721,0.5905506014823914,0.5905506014823914
479,1.0,0.00020456715719774365,0.00020456715719774365,1e-04,0.800000011920929,0.5871738791465759,0.5871738791465759
480,1.0,0.00020429780124686658,0.00020429780124686658,1e-04,0.8100000023841858,0.5844631791114807,0.5844631791114807
481,1.0,0.00020395699539221823,0.00020395699539221823,1e-04,0.8100000023841858,0.5817863941192627,0.5817863941192627
482,1.0,0.00020361498172860593,0.00020361498172860593,1e-04,0.8100000023841858,0.5789037942886353,0.5789037942886353
483,1.0,0.00020329795370344073,0.00020329795370344073,1e-04,0.8100000023841858,0.576087474822998,0.576087474822998
484,1.0,0.0002030369796557352,0.0002030369796557352,1e-04,0.8100000023841858,0.5736740827560425,0.5736740827560425
485,1.0,0.00020270448294468224,0.00020270448294468224,1e-04,0.8100000023841858,0.5708293914794922,0.5708293914794922
486,1.0,0.00020242681785020977,0.00020242681785020977,1e-04,0.8100000023841858,0.5683605074882507,0.5683605074882507
487,1.0,0.00020215508993715048,0.00020215508993715048,1e-04,0.800000011920929,0.5655646920204163,0.5655646920204163
488,1.0,0.00020181306172162294,0.00020181306172162294,1e-04,0.800000011920929,0.5626702308654785,0.5626702308654785
489,1.0,0.00020152465731371194,0.00020152465731371194,1e-04,0.800000011920929,0.5603044033050537,0.5603044033050537
490,1.0,0.00020118623797316104,0.00020118623797316104,1e-04,0.800000011920929,0.557668924331665,0.557668924331665
491,1.0,0.00020091806072741747,0.00020091806072741747,1e-04,0.800000011920929,0.5551502704620361,0.5551502704620361
492,1.0,0.00020063920237589628,0.00020063920237589628,1e-04,0.800000011920929,0.5528239607810974,0.5528239607810974
493,1.0,0.00020034005865454674,0.00020034005865454674,1e-04,0.800000011920929,0.5502930283546448,0.5502930283546448
494,1.0,0.0002000171079998836,0.0002000171079998836,1e-04,0.800000011920929,0.5481616258621216,0.5481616258621216
495,1.0,0.00019971560686826706,0.00019971560686826706,1e-04,0.800000011920929,0.5456044673919678,0.5456044673919678
496,1.0,0.00019944865198340267,0.00019944865198340267,1e-04,0.800000011920929,0.5431022047996521,0.5431022047996521
497,1.0,0.00019917455210816115,0.00019917455210816115,1e-04,0.800000011920929,0.5409454703330994,0.5409454703330994
498,1.0,0.00019887064991053194,0.00019887064991053194,1e-04,0.800000011920929,0.5386025905609131,0.5386025905609131
499,1.0,0.00019853340927511454,0.00019853340927511454,1e-04,0.800000011920929,0.5364046692848206,0.5364046692848206
500,1.0,0.00019823545881081372,0.00019823545881081372,1e-04,0.800000011920929,0.5340447425842285,0.5340447425842285
501,1.0,0.00019796850392594934,0.00019796850392594934,1e-04,0.8199999928474426,0.5318500399589539,0.5318500399589539
502,1.0,0.00019770750077441335,0.00019770750077441335,1e-04,0.8199999928474426,0.5296653509140015,0.5296653509140015
503,1.0,0.00019741672440432012,0.00019741672440432012,1e-04,0.8199999928474426,0.5276694893836975,0.5276694893836975
504,1.0,0.0001970997400349006,0.0001970997400349006,1e-04,0.8199999928474426,0.5254785418510437,0.5254785418510437
505,1.0,0.0001967696298379451,0.0001967696298379451,1e-04,0.8199999928474426,0.5235230922698975,0.5235230922698975
506,1.0,0.00019648838497232646,0.00019648838497232646,1e-04,0.8199999928474426,0.5214142799377441,0.5214142799377441
507,1.0,0.00019618567603174597,0.00019618567603174597,1e-04,0.8199999928474426,0.5197188258171082,0.5197188258171082
508,1.0,0.0001958841603482142,0.0001958841603482142,1e-04,0.8199999928474426,0.5177715420722961,0.5177715420722961
509,1.0,0.00019559694919735193,0.00019559694919735193,1e-04,0.8199999928474426,0.516054630279541,0.516054630279541
510,1.0,0.00019530854478944093,0.00019530854478944093,1e-04,0.8100000023841858,0.5142629742622375,0.5142629742622375
511,1.0,0.00019503205840010196,0.00019503205840010196,1e-04,0.8100000023841858,0.5123539566993713,0.5123539566993713
512,1.0,0.00019472578424029052,0.00019472578424029052,1e-04,0.8100000023841858,0.5107595920562744,0.5107595920562744
513,1.0,0.000194424283108674,0.000194424283108674,1e-04,0.8100000023841858,0.5092032551765442,0.5092032551765442
514,1.0,0.00019409175729379058,0.00019409175729379058,1e-04,0.8199999928474426,0.5074759125709534,0.5074759125709534
515,1.0,0.00019384865299798548,0.00019384865299798548,1e-04,0.8199999928474426,0.5060117840766907,0.5060117840766907
516,1.0,0.00019349112699273974,0.00019349112699273974,1e-04,0.8199999928474426,0.5045605897903442,0.5045605897903442
517,1.0,0.00019318722479511052,0.00019318722479511052,1e-04,0.8199999928474426,0.5030400156974792,0.5030400156974792
518,1.0,0.0001928738201968372,0.0001928738201968372,1e-04,0.8199999928474426,0.5017442107200623,0.5017442107200623
519,1.0,0.00019259851251263171,0.00019259851251263171,1e-04,0.8199999928474426,0.5003620386123657,0.5003620386123657
520,1.0,0.00019227195298299193,0.00019227195298299193,1e-04,0.8199999928474426,0.49901753664016724,0.49901753664016724
521,1.0,0.00019202048133593053,0.00019202048133593053,1e-04,0.8199999928474426,0.49775272607803345,0.49775272607803345
522,1.0,0.0001917094486998394,0.0001917094486998394,1e-04,0.8199999928474426,0.49649152159690857,0.49649152159690857
523,1.0,0.00019141507800668478,0.00019141507800668478,1e-04,0.8199999928474426,0.4952135384082794,0.4952135384082794
524,1.0,0.00019117792544420809,0.00019117792544420809,1e-04,0.8199999928474426,0.49404990673065186,0.49404990673065186
525,1.0,0.00019086689280811697,0.00019086689280811697,1e-04,0.8199999928474426,0.4929516613483429,0.4929516613483429
526,1.0,0.0001905617828015238,0.0001905617828015238,1e-04,0.8199999928474426,0.49178189039230347,0.49178189039230347
527,1.0,0.00019025072106160223,0.00019025072106160223,1e-04,0.8199999928474426,0.49078482389450073,0.49078482389450073
528,1.0,0.0001899444469017908,0.0001899444469017908,1e-04,0.8199999928474426,0.4899556040763855,0.4899556040763855
529,1.0,0.00018969655502587557,0.00018969655502587557,1e-04,0.8199999928474426,0.4888378381729126,0.4888378381729126
530,1.0,0.0001893771841423586,0.0001893771841423586,1e-04,0.8199999928474426,0.4877590537071228,0.4877590537071228
531,1.0,0.00018912332598119974,0.00018912332598119974,1e-04,0.8199999928474426,0.48674625158309937,0.48674625158309937
532,1.0,0.00018886232282966375,0.00018886232282966375,1e-04,0.8199999928474426,0.48577263951301575,0.48577263951301575
533,1.0,0.00018858344992622733,0.00018858344992622733,1e-04,0.8199999928474426,0.48475733399391174,0.48475733399391174
534,1.0,0.00018827478925231844,0.00018827478925231844,1e-04,0.8199999928474426,0.4840465188026428,0.4840465188026428
535,1.0,0.00018801380065269768,0.00018801380065269768,1e-04,0.8199999928474426,0.48316052556037903,0.48316052556037903
536,1.0,0.00018775995704345405,0.00018775995704345405,1e-04,0.8199999928474426,0.48239174485206604,0.48239174485206604
537,1.0,0.00018748821457847953,0.00018748821457847953,1e-04,0.8299999833106995,0.48140156269073486,0.48140156269073486
538,1.0,0.0001871676358859986,0.0001871676358859986,1e-04,0.8299999833106995,0.4808165729045868,0.4808165729045868
539,1.0,0.000186885183211416,0.000186885183211416,1e-04,0.8299999833106995,0.4799996614456177,0.4799996614456177
540,1.0,0.0001866075035650283,0.0001866075035650283,1e-04,0.8299999833106995,0.4793522357940674,0.4793522357940674
541,1.0,0.00018635486776474863,0.00018635486776474863,1e-04,0.8299999833106995,0.47874122858047485,0.47874122858047485
542,1.0,0.00018609028484206647,0.00018609028484206647,1e-04,0.8399999737739563,0.4780316650867462,0.4780316650867462
543,1.0,0.00018579950847197324,0.00018579950847197324,1e-04,0.8399999737739563,0.4774724841117859,0.4774724841117859
544,1.0,0.00018554803682491183,0.00018554803682491183,1e-04,0.8399999737739563,0.476649671792984,0.476649671792984
545,1.0,0.00018527988868299872,0.00018527988868299872,1e-04,0.8399999737739563,0.4760035574436188,0.4760035574436188
546,1.0,0.00018503675528336316,0.00018503675528336316,1e-04,0.8399999737739563,0.47540444135665894,0.47540444135665894
547,1.0,0.0001847614475991577,0.0001847614475991577,1e-04,0.8399999737739563,0.4750504791736603,0.4750504791736603
548,1.0,0.00018444804300088435,0.00018444804300088435,1e-04,0.8399999737739563,0.4744539260864258,0.4744539260864258
549,1.0,0.0001841751072788611,0.0001841751072788611,1e-04,0.8399999737739563,0.4740673899650574,0.4740673899650574
550,1.0,0.00018389028264209628,0.00018389028264209628,1e-04,0.8500000238418579,0.473539799451828,0.473539799451828
551,1.0,0.0001836126175476238,0.0001836126175476238,1e-04,0.8500000238418579,0.4732436239719391,0.4732436239719391
552,1.0,0.00018335279310122132,0.00018335279310122132,1e-04,0.8500000238418579,0.4726954996585846,0.4726954996585846
553,1.0,0.00018307866412214935,0.00018307866412214935,1e-04,0.8500000238418579,0.47219792008399963,0.47219792008399963
554,1.0,0.00018282960809301585,0.00018282960809301585,1e-04,0.8500000238418579,0.47193455696105957,0.47193455696105957
555,1.0,0.00018256145995110273,0.00018256145995110273,1e-04,0.8500000238418579,0.4715885818004608,0.4715885818004608
556,1.0,0.00018228615226689726,0.00018228615226689726,1e-04,0.8600000143051147,0.4712883234024048,0.4712883234024048
557,1.0,0.00018203230865765363,0.00018203230865765363,1e-04,0.8600000143051147,0.4710742235183716,0.4710742235183716
558,1.0,0.00018175224249716848,0.00018175224249716848,1e-04,0.8600000143051147,0.4707355499267578,0.4707355499267578
559,1.0,0.00018150433606933802,0.00018150433606933802,1e-04,0.8600000143051147,0.4704594314098358,0.4704594314098358
560,1.0,0.00018124215421266854,0.00018124215421266854,1e-04,0.8600000143051147,0.4702184796333313,0.4702184796333313
561,1.0,0.00018095612176693976,0.00018095612176693976,1e-04,0.8600000143051147,0.4702666997909546,0.4702666997909546
562,1.0,0.00018068680947180837,0.00018068680947180837,1e-04,0.8600000143051147,0.4701310992240906,0.4701310992240906
563,1.0,0.00018043654563371092,0.00018043654563371092,1e-04,0.8600000143051147,0.47006431221961975,0.47006431221961975
564,1.0,0.00018017791444435716,0.00018017791444435716,1e-04,0.8600000143051147,0.47005775570869446,0.47005775570869446
565,1.0,0.00017995861708186567,0.00017995861708186567,1e-04,0.8600000143051147,0.469944566488266,0.469944566488266
566,1.0,0.00017969284090213478,0.00017969284090213478,1e-04,0.8600000143051147,0.46958526968955994,0.46958526968955994
567,1.0,0.0001794115814846009,0.0001794115814846009,1e-04,0.8600000143051147,0.46951809525489807,0.46951809525489807
568,1.0,0.00017908863082993776,0.00017908863082993776,1e-04,0.8600000143051147,0.4693049490451813,0.4693049490451813
569,1.0,0.00017881093663163483,0.00017881093663163483,1e-04,0.8600000143051147,0.4694148898124695,0.4694148898124695
570,1.0,0.00017858091450762004,0.00017858091450762004,1e-04,0.8600000143051147,0.46908509731292725,0.46908509731292725
571,1.0,0.00017836761253420264,0.00017836761253420264,1e-04,0.8600000143051147,0.469059020280838,0.469059020280838
572,1.0,0.00017812447913456708,0.00017812447913456708,1e-04,0.8500000238418579,0.4691055417060852,0.4691055417060852
573,1.0,0.00017786226817406714,0.00017786226817406714,1e-04,0.8500000238418579,0.46895256638526917,0.46895256638526917
574,1.0,0.00017760961782187223,0.00017760961782187223,1e-04,0.8500000238418579,0.46912163496017456,0.46912163496017456
575,1.0,0.00017736291920300573,0.00017736291920300573,1e-04,0.8500000238418579,0.46925991773605347,0.46925991773605347
576,1.0,0.00017706856306176633,0.00017706856306176633,1e-04,0.8500000238418579,0.46950164437294006,0.46950164437294006
577,1.0,0.0001768158981576562,0.0001768158981576562,1e-04,0.8600000143051147,0.4696193337440491,0.4696193337440491
578,1.0,0.00017654178373049945,0.00017654178373049945,1e-04,0.8600000143051147,0.4699341058731079,0.4699341058731079
579,1.0,0.00017624383326619864,0.00017624383326619864,1e-04,0.8600000143051147,0.47019127011299133,0.47019127011299133
580,1.0,0.00017598761769477278,0.00017598761769477278,1e-04,0.8600000143051147,0.47035518288612366,0.47035518288612366
581,1.0,0.00017572063370607793,0.00017572063370607793,1e-04,0.8600000143051147,0.47056227922439575,0.47056227922439575
582,1.0,0.00017544295405969024,0.00017544295405969024,1e-04,0.8600000143051147,0.47049060463905334,0.47049060463905334
583,1.0,0.00017516050138510764,0.00017516050138510764,1e-04,0.8600000143051147,0.4708701968193054,0.4708701968193054
584,1.0,0.0001748899812810123,0.0001748899812810123,1e-04,0.8600000143051147,0.47103583812713623,0.47103583812713623
585,1.0,0.0001745991758070886,0.0001745991758070886,1e-04,0.8600000143051147,0.4712936282157898,0.4712936282157898
586,1.0,0.00017432862659916282,0.00017432862659916282,1e-04,0.8600000143051147,0.4714723825454712,0.4714723825454712
587,1.0,0.00017402473895344883,0.00017402473895344883,1e-04,0.8600000143051147,0.4717632234096527,0.4717632234096527
588,1.0,0.00017381618090439588,0.00017381618090439588,1e-04,0.8600000143051147,0.4722284972667694,0.4722284972667694
589,1.0,0.00017357424076180905,0.00017357424076180905,1e-04,0.8600000143051147,0.4726675748825073,0.4726675748825073
590,1.0,0.00017332752759102732,0.00017332752759102732,1e-04,0.8600000143051147,0.47318708896636963,0.47318708896636963
591,1.0,0.00017309987742919475,0.00017309987742919475,1e-04,0.8600000143051147,0.47344982624053955,0.47344982624053955
592,1.0,0.00017284364730585366,0.00017284364730585366,1e-04,0.8600000143051147,0.4738473892211914,0.4738473892211914
593,1.0,0.00017260052845813334,0.00017260052845813334,1e-04,0.8600000143051147,0.4743443429470062,0.4743443429470062
594,1.0,0.0001723526365822181,0.0001723526365822181,1e-04,0.8600000143051147,0.47470954060554504,0.47470954060554504
595,1.0,0.00017207852215506136,0.00017207852215506136,1e-04,0.8700000047683716,0.4751649498939514,0.4751649498939514
596,1.0,0.00017182706505991518,0.00017182706505991518,1e-04,0.8700000047683716,0.47557178139686584,0.47557178139686584
597,1.0,0.00017160298011731356,0.00017160298011731356,1e-04,0.8700000047683716,0.4759753942489624,0.4759753942489624
598,1.0,0.00017130502965301275,0.00017130502965301275,1e-04,0.8700000047683716,0.47673699259757996,0.47673699259757996
599,1.0,0.0001710916985757649,0.0001710916985757649,1e-04,0.8700000047683716,0.4772217869758606,0.4772217869758606
600,1.0,0.00017081758414860815,0.00017081758414860815,1e-04,0.8700000047683716,0.47755610942840576,0.47755610942840576
601,1.0,0.00017056017532013357,0.00017056017532013357,1e-04,0.8700000047683716,0.4780721664428711,0.4780721664428711
602,1.0,0.00017030512390192598,0.00017030512390192598,1e-04,0.8700000047683716,0.4785018563270569,0.4785018563270569
603,1.0,0.00017003815446514636,0.00017003815446514636,1e-04,0.8700000047683716,0.4791285991668701,0.4791285991668701
604,1.0,0.00016981648514047265,0.00016981648514047265,1e-04,0.8700000047683716,0.47981980443000793,0.47981980443000793
605,1.0,0.00016959957429207861,0.00016959957429207861,1e-04,0.8700000047683716,0.4803334176540375,0.4803334176540375
606,1.0,0.0001693218800937757,0.0001693218800937757,1e-04,0.8700000047683716,0.48115766048431396,0.48115766048431396
607,1.0,0.00016906922974158078,0.00016906922974158078,1e-04,0.8700000047683716,0.48148882389068604,0.48148882389068604
608,1.0,0.00016878081078175455,0.00016878081078175455,1e-04,0.8700000047683716,0.4822346866130829,0.4822346866130829
609,1.0,0.00016854841669555753,0.00016854841669555753,1e-04,0.8700000047683716,0.4828137159347534,0.4828137159347534
610,1.0,0.00016829815285746008,0.00016829815285746008,1e-04,0.8700000047683716,0.4834510385990143,0.4834510385990143
611,1.0,0.00016805740597192198,0.00016805740597192198,1e-04,0.8700000047683716,0.48441943526268005,0.48441943526268005
612,1.0,0.00016782261081971228,0.00016782261081971228,1e-04,0.8799999952316284,0.48511072993278503,0.48511072993278503
613,1.0,0.00016760807193350047,0.00016760807193350047,1e-04,0.8799999952316284,0.4859046936035156,0.4859046936035156
614,1.0,0.00016732682706788182,0.00016732682706788182,1e-04,0.8799999952316284,0.4863779842853546,0.4863779842853546
615,1.0,0.00016707654867786914,0.00016707654867786914,1e-04,0.8799999952316284,0.4871539771556854,0.4871539771556854
616,1.0,0.00016686320304870605,0.00016686320304870605,1e-04,0.8799999952316284,0.4877224266529083,0.4877224266529083
617,1.0,0.00016664748545736074,0.00016664748545736074,1e-04,0.8799999952316284,0.4886317849159241,0.4886317849159241
618,1.0,0.0001663984003243968,0.0001663984003243968,1e-04,0.8799999952316284,0.4891718327999115,0.4891718327999115
619,1.0,0.00016615168715361506,0.00016615168715361506,1e-04,0.8799999952316284,0.49001872539520264,0.49001872539520264
620,1.0,0.00016592761676292866,0.00016592761676292866,1e-04,0.8799999952316284,0.4905693531036377,0.4905693531036377
621,1.0,0.00016569523722864687,0.00016569523722864687,1e-04,0.8799999952316284,0.49111220240592957,0.49111220240592957
622,1.0,0.0001654306543059647,0.0001654306543059647,1e-04,0.8799999952316284,0.4920361638069153,0.4920361638069153
623,1.0,0.00016520064673386514,0.00016520064673386514,1e-04,0.8799999952316284,0.49290597438812256,0.49290597438812256
624,1.0,0.0001649491605348885,0.0001649491605348885,1e-04,0.8799999952316284,0.49406155943870544,0.49406155943870544
625,1.0,0.00016469413822051138,0.00016469413822051138,1e-04,0.8799999952316284,0.49479159712791443,0.49479159712791443
626,1.0,0.00016444502398371696,0.00016444502398371696,1e-04,0.8799999952316284,0.495690256357193,0.495690256357193
627,1.0,0.00016416855214629322,0.00016416855214629322,1e-04,0.8799999952316284,0.4964558780193329,0.4964558780193329
628,1.0,0.00016392898396588862,0.00016392898396588862,1e-04,0.8799999952316284,0.497345507144928,0.497345507144928
629,1.0,0.00016368228534702212,0.00016368228534702212,1e-04,0.8799999952316284,0.49816974997520447,0.49816974997520447
630,1.0,0.0001634725194890052,0.0001634725194890052,1e-04,0.8799999952316284,0.49908196926116943,0.49908196926116943
631,1.0,0.00016323178715538234,0.00016323178715538234,1e-04,0.8799999952316284,0.49996963143348694,0.49996963143348694
632,1.0,0.0001630017504794523,0.0001630017504794523,1e-04,0.8799999952316284,0.5008482933044434,0.5008482933044434
633,1.0,0.00016276339010801166,0.00016276339010801166,1e-04,0.8799999952316284,0.5014980435371399,0.5014980435371399
634,1.0,0.00016256792878266424,0.00016256792878266424,1e-04,0.8799999952316284,0.5021003484725952,0.5021003484725952
635,1.0,0.00016236171359196305,0.00016236171359196305,1e-04,0.8799999952316284,0.5029702186584473,0.5029702186584473
636,1.0,0.00016212338232435286,0.00016212338232435286,1e-04,0.8799999952316284,0.5038000345230103,0.5038000345230103
637,1.0,0.00016188858717214316,0.00016188858717214316,1e-04,0.8799999952316284,0.5045129656791687,0.5045129656791687
638,1.0,0.0001616657100385055,0.0001616657100385055,1e-04,0.8799999952316284,0.5055221319198608,0.5055221319198608
639,1.0,0.00016147384303621948,0.00016147384303621948,1e-04,0.8799999952316284,0.5062925219535828,0.5062925219535828
640,1.0,0.00016119732754305005,0.00016119732754305005,1e-04,0.8799999952316284,0.5073685050010681,0.5073685050010681
641,1.0,0.00016095777391456068,0.00016095777391456068,1e-04,0.8799999952316284,0.5078442692756653,0.5078442692756653
642,1.0,0.00016074445738922805,0.00016074445738922805,1e-04,0.8799999952316284,0.508672297000885,0.508672297000885
643,1.0,0.00016052514547482133,0.00016052514547482133,1e-04,0.8799999952316284,0.5091922283172607,0.5091922283172607
644,1.0,0.00016028560639824718,0.00016028560639824718,1e-04,0.8799999952316284,0.5098651051521301,0.5098651051521301
645,1.0,0.0001600353280082345,0.0001600353280082345,1e-04,0.8799999952316284,0.5106049180030823,0.5106049180030823
646,1.0,0.00015981245087459683,0.00015981245087459683,1e-04,0.8799999952316284,0.5114389657974243,0.5114389657974243
647,1.0,0.000159583636559546,0.000159583636559546,1e-04,0.8799999952316284,0.5117613077163696,0.5117613077163696
648,1.0,0.0001593583874637261,0.0001593583874637261,1e-04,0.8799999952316284,0.5124210119247437,0.5124210119247437
649,1.0,0.00015912357775960118,0.00015912357775960118,1e-04,0.8799999952316284,0.5131099224090576,0.5131099224090576
650,1.0,0.00015889713540673256,0.00015889713540673256,1e-04,0.8799999952316284,0.5137065649032593,0.5137065649032593
651,1.0,0.000158626600750722,0.000158626600750722,1e-04,0.8799999952316284,0.5144166946411133,0.5144166946411133
652,1.0,0.00015838822582736611,0.00015838822582736611,1e-04,0.8799999952316284,0.5151981115341187,0.5151981115341187
653,1.0,0.00015816652739886194,0.00015816652739886194,1e-04,0.8799999952316284,0.5159205794334412,0.5159205794334412
654,1.0,0.00015791505575180054,0.00015791505575180054,1e-04,0.8799999952316284,0.5166946053504944,0.5166946053504944
655,1.0,0.0001576981449034065,0.0001576981449034065,1e-04,0.8799999952316284,0.5173020362854004,0.5173020362854004
656,1.0,0.00015745859127491713,0.00015745859127491713,1e-04,0.8799999952316284,0.5179579854011536,0.5179579854011536
657,1.0,0.00015727504796814173,0.00015727504796814173,1e-04,0.8799999952316284,0.5183917880058289,0.5183917880058289
658,1.0,0.0001570474123582244,0.0001570474123582244,1e-04,0.8799999952316284,0.5190961360931396,0.5190961360931396
659,1.0,0.00015677447663620114,0.00015677447663620114,1e-04,0.8799999952316284,0.5196720361709595,0.5196720361709595
660,1.0,0.00015656590403523296,0.00015656590403523296,1e-04,0.8799999952316284,0.5202593207359314,0.5202593207359314
661,1.0,0.00015639548655599356,0.00015639548655599356,1e-04,0.8799999952316284,0.5209043622016907,0.5209043622016907
662,1.0,0.00015613804862368852,0.00015613804862368852,1e-04,0.8799999952316284,0.5213543772697449,0.5213543772697449
663,1.0,0.0001559211523272097,0.0001559211523272097,1e-04,0.8799999952316284,0.522109866142273,0.522109866142273
664,1.0,0.0001557256910018623,0.0001557256910018623,1e-04,0.8799999952316284,0.5228759050369263,0.5228759050369263
665,1.0,0.00015551115211565048,0.00015551115211565048,1e-04,0.8799999952316284,0.5235540270805359,0.5235540270805359
666,1.0,0.00015529184020124376,0.00015529184020124376,1e-04,0.8799999952316284,0.5242827534675598,0.5242827534675598
667,1.0,0.00015507018542848527,0.00015507018542848527,1e-04,0.8799999952316284,0.5245721936225891,0.5245721936225891
668,1.0,0.00015483656898140907,0.00015483656898140907,1e-04,0.8799999952316284,0.5253031253814697,0.5253031253814697
669,1.0,0.0001546017883811146,0.0001546017883811146,1e-04,0.8799999952316284,0.5255722403526306,0.5255722403526306
670,1.0,0.00015438249101862311,0.00015438249101862311,1e-04,0.8799999952316284,0.5259305834770203,0.5259305834770203
671,1.0,0.00015413816436193883,0.00015413816436193883,1e-04,0.8799999952316284,0.5261876583099365,0.5261876583099365
672,1.0,0.00015394031652249396,0.00015394031652249396,1e-04,0.8799999952316284,0.5268748998641968,0.5268748998641968
673,1.0,0.00015371027984656394,0.00015371027984656394,1e-04,0.8799999952316284,0.5272380709648132,0.5272380709648132
674,1.0,0.00015347072621807456,0.00015347072621807456,1e-04,0.8799999952316284,0.5280773043632507,0.5280773043632507
675,1.0,0.00015325142885558307,0.00015325142885558307,1e-04,0.8799999952316284,0.5284571647644043,0.5284571647644043
676,1.0,0.00015305477427318692,0.00015305477427318692,1e-04,0.8799999952316284,0.5293155908584595,0.5293155908584595
677,1.0,0.00015285573317669332,0.00015285573317669332,1e-04,0.8799999952316284,0.5298458337783813,0.5298458337783813
678,1.0,0.0001526304695289582,0.0001526304695289582,1e-04,0.8799999952316284,0.5303972959518433,0.5303972959518433
679,1.0,0.00015242787776514888,0.00015242787776514888,1e-04,0.8799999952316284,0.5307290554046631,0.5307290554046631
680,1.0,0.00015216924657579511,0.00015216924657579511,1e-04,0.8799999952316284,0.531195342540741,0.531195342540741
681,1.0,0.00015197139873635024,0.00015197139873635024,1e-04,0.8799999952316284,0.5316658616065979,0.5316658616065979
682,1.0,0.0001517342170700431,0.0001517342170700431,1e-04,0.8799999952316284,0.5323925018310547,0.5323925018310547
683,1.0,0.00015152922424022108,0.00015152922424022108,1e-04,0.8799999952316284,0.5331124663352966,0.5331124663352966
684,1.0,0.00015128251106943935,0.00015128251106943935,1e-04,0.8799999952316284,0.5335546135902405,0.5335546135902405
685,1.0,0.00015107037324924022,0.00015107037324924022,1e-04,0.8799999952316284,0.533851683139801,0.533851683139801
686,1.0,0.0001508081768406555,0.0001508081768406555,1e-04,0.8799999952316284,0.5342544317245483,0.5342544317245483
687,1.0,0.00015061270096339285,0.00015061270096339285,1e-04,0.8799999952316284,0.5345844626426697,0.5345844626426697
688,1.0,0.00015037195407785475,0.00015037195407785475,1e-04,0.8799999952316284,0.5349089503288269,0.5349089503288269
689,1.0,0.00015016933321021497,0.00015016933321021497,1e-04,0.8799999952316284,0.5353413224220276,0.5353413224220276
690,1.0,0.00014993453805800527,0.00014993453805800527,1e-04,0.8799999952316284,0.5356746912002563,0.5356746912002563
691,1.0,0.00014966876187827438,0.00014966876187827438,1e-04,0.8799999952316284,0.5357533097267151,0.5357533097267151
692,1.0,0.0001494816388003528,0.0001494816388003528,1e-04,0.8799999952316284,0.5362045764923096,0.5362045764923096
693,1.0,0.00014929811004549265,0.00014929811004549265,1e-04,0.8799999952316284,0.5365588665008545,0.5365588665008545
694,1.0,0.00014908715093042701,0.00014908715093042701,1e-04,0.8799999952316284,0.5367950797080994,0.5367950797080994
695,1.0,0.00014889644808135927,0.00014889644808135927,1e-04,0.8799999952316284,0.5369799137115479,0.5369799137115479
696,1.0,0.0001486866967752576,0.0001486866967752576,1e-04,0.8799999952316284,0.5370633602142334,0.5370633602142334
697,1.0,0.0001484936074120924,0.0001484936074120924,1e-04,0.8799999952316284,0.5374168157577515,0.5374168157577515
698,1.0,0.00014827551785856485,0.00014827551785856485,1e-04,0.8799999952316284,0.5375420451164246,0.5375420451164246
699,1.0,0.00014805622049607337,0.00014805622049607337,1e-04,0.8799999952316284,0.5377514362335205,0.5377514362335205
700,1.0,0.00014787146938033402,0.00014787146938033402,1e-04,0.8799999952316284,0.5382648706436157,0.5382648706436157
701,1.0,0.00014767838001716882,0.00014767838001716882,1e-04,0.8799999952316284,0.5385107398033142,0.5385107398033142
702,1.0,0.0001474817399866879,0.0001474817399866879,1e-04,0.8799999952316284,0.5390207171440125,0.5390207171440125
703,1.0,0.00014726721565239131,0.00014726721565239131,1e-04,0.8799999952316284,0.539017379283905,0.539017379283905
704,1.0,0.0001470765273552388,0.0001470765273552388,1e-04,0.8799999952316284,0.5393171906471252,0.5393171906471252
705,1.0,0.00014687272778246552,0.00014687272778246552,1e-04,0.8799999952316284,0.5395824909210205,0.5395824909210205
706,1.0,0.00014664865739177912,0.00014664865739177912,1e-04,0.8799999952316284,0.5396983027458191,0.5396983027458191
707,1.0,0.00014646867930423468,0.00014646867930423468,1e-04,0.8799999952316284,0.539648711681366,0.539648711681366
708,1.0,0.00014628750795964152,0.00014628750795964152,1e-04,0.8799999952316284,0.5398536324501038,0.5398536324501038
709,1.0,0.0001460872736060992,0.0001460872736060992,1e-04,0.8799999952316284,0.5399717092514038,0.5399717092514038
710,1.0,0.00014589419879484922,0.00014589419879484922,1e-04,0.8799999952316284,0.540152907371521,0.540152907371521
711,1.0,0.00014564988669008017,0.00014564988669008017,1e-04,0.8799999952316284,0.5403189659118652,0.5403189659118652
712,1.0,0.00014546752208843827,0.00014546752208843827,1e-04,0.8799999952316284,0.5406448245048523,0.5406448245048523
713,1.0,0.00014528278552461416,0.00014528278552461416,1e-04,0.8799999952316284,0.5406525731086731,0.5406525731086731
714,1.0,0.00014507898595184088,0.00014507898595184088,1e-04,0.8799999952316284,0.5406065583229065,0.5406065583229065
715,1.0,0.0001448775437893346,0.0001448775437893346,1e-04,0.8799999952316284,0.5406744480133057,0.5406744480133057
716,1.0,0.00014468685549218208,0.00014468685549218208,1e-04,0.8799999952316284,0.541042685508728,0.541042685508728
717,1.0,0.00014446517161559314,0.00014446517161559314,1e-04,0.8799999952316284,0.541465699672699,0.541465699672699
718,1.0,0.00014427209680434316,0.00014427209680434316,1e-04,0.8799999952316284,0.5412887334823608,0.5412887334823608
719,1.0,0.0001440897467546165,0.0001440897467546165,1e-04,0.8799999952316284,0.5415715575218201,0.5415715575218201
720,1.0,0.0001438406325178221,0.0001438406325178221,1e-04,0.8799999952316284,0.5417840480804443,0.5417840480804443
721,1.0,0.00014363326772581786,0.00014363326772581786,1e-04,0.8799999952316284,0.5416256785392761,0.5416256785392761
722,1.0,0.0001434401929145679,0.0001434401929145679,1e-04,0.8799999952316284,0.541877031326294,0.541877031326294
723,1.0,0.00014321850903797895,0.00014321850903797895,1e-04,0.8799999952316284,0.5420337915420532,0.5420337915420532
724,1.0,0.00014304211072158068,0.00014304211072158068,1e-04,0.8799999952316284,0.5420500040054321,0.5420500040054321
725,1.0,0.0001428275863872841,0.0001428275863872841,1e-04,0.8799999952316284,0.5418615341186523,0.5418615341186523
726,1.0,0.00014263330376707017,0.00014263330376707017,1e-04,0.8799999952316284,0.5421432256698608,0.5421432256698608
727,1.0,0.0001424295041942969,0.0001424295041942969,1e-04,0.8799999952316284,0.5426203012466431,0.5426203012466431
728,1.0,0.00014227574865799397,0.00014227574865799397,1e-04,0.8799999952316284,0.5425981283187866,0.5425981283187866
729,1.0,0.00014204572653397918,0.00014204572653397918,1e-04,0.8799999952316284,0.5426957607269287,0.5426957607269287
730,1.0,0.000141864555189386,0.000141864555189386,1e-04,0.8799999952316284,0.5429426431655884,0.5429426431655884
731,1.0,0.00014168339839670807,0.00014168339839670807,1e-04,0.8799999952316284,0.5428160429000854,0.5428160429000854
732,1.0,0.00014146289322525263,0.00014146289322525263,1e-04,0.8799999952316284,0.5427712202072144,0.5427712202072144
733,1.0,0.0001412722049281001,0.0001412722049281001,1e-04,0.8799999952316284,0.5430777072906494,0.5430777072906494
734,1.0,0.00014108627510722727,0.00014108627510722727,1e-04,0.8799999952316284,0.5430298447608948,0.5430298447608948
735,1.0,0.00014090631157159805,0.00014090631157159805,1e-04,0.8799999952316284,0.5430047512054443,0.5430047512054443
736,1.0,0.0001407358649885282,0.0001407358649885282,1e-04,0.8799999952316284,0.5429540276527405,0.5429540276527405
737,1.0,0.00014051893958821893,0.00014051893958821893,1e-04,0.8799999952316284,0.5430560111999512,0.5430560111999512
738,1.0,0.00014035566709935665,0.00014035566709935665,1e-04,0.8799999952316284,0.5428493022918701,0.5428493022918701
739,1.0,0.00014014948101248592,0.00014014948101248592,1e-04,0.8799999952316284,0.5427665114402771,0.5427665114402771
740,1.0,0.00013996830966789275,0.00013996830966789275,1e-04,0.8799999952316284,0.542685866355896,0.542685866355896
741,1.0,0.00013978953938931227,0.00013978953938931227,1e-04,0.8799999952316284,0.5426754355430603,0.5426754355430603
742,1.0,0.00013957022747490555,0.00013957022747490555,1e-04,0.8799999952316284,0.5427767038345337,0.5427767038345337
743,1.0,0.0001393378188367933,0.0001393378188367933,1e-04,0.8799999952316284,0.5426625609397888,0.5426625609397888
744,1.0,0.00013908396067563444,0.00013908396067563444,1e-04,0.8799999952316284,0.5424383282661438,0.5424383282661438
745,1.0,0.00013892067363485694,0.00013892067363485694,1e-04,0.8799999952316284,0.5424237251281738,0.5424237251281738
746,1.0,0.00013868110545445234,0.00013868110545445234,1e-04,0.8799999952316284,0.5424909591674805,0.5424909591674805
747,1.0,0.00013848445087205619,0.00013848445087205619,1e-04,0.8799999952316284,0.5424450039863586,0.5424450039863586
748,1.0,0.00013829852105118334,0.00013829852105118334,1e-04,0.8799999952316284,0.5425075888633728,0.5425075888633728
749,1.0,0.0001380875619361177,0.0001380875619361177,1e-04,0.8799999952316284,0.542482852935791,0.542482852935791
750,1.0,0.00013788611977361143,0.00013788611977361143,1e-04,0.8799999952316284,0.5425741076469421,0.5425741076469421
751,1.0,0.0001376894797431305,0.0001376894797431305,1e-04,0.8799999952316284,0.5425087213516235,0.5425087213516235
752,1.0,0.00013749758363701403,0.00013749758363701403,1e-04,0.8799999952316284,0.5422841310501099,0.5422841310501099
753,1.0,0.00013729854254052043,0.00013729854254052043,1e-04,0.8799999952316284,0.5423586368560791,0.5423586368560791
754,1.0,0.0001370935351587832,0.0001370935351587832,1e-04,0.8799999952316284,0.542412519454956,0.542412519454956
755,1.0,0.00013688615581486374,0.00013688615581486374,1e-04,0.8799999952316284,0.5423898100852966,0.5423898100852966
756,1.0,0.00013671214401256293,0.00013671214401256293,1e-04,0.8799999952316284,0.5425200462341309,0.5425200462341309
757,1.0,0.0001365214557154104,0.0001365214557154104,1e-04,0.8799999952316284,0.5422263145446777,0.5422263145446777
758,1.0,0.0001363235933240503,0.0001363235933240503,1e-04,0.8799999952316284,0.5420546531677246,0.5420546531677246
759,1.0,0.00013611261965706944,0.00013611261965706944,1e-04,0.8799999952316284,0.541872501373291,0.541872501373291
760,1.0,0.000135945767397061,0.000135945767397061,1e-04,0.8799999952316284,0.541581928730011,0.541581928730011
761,1.0,0.00013576462515629828,0.00013576462515629828,1e-04,0.8799999952316284,0.5418810844421387,0.5418810844421387
762,1.0,0.00013559895160142332,0.00013559895160142332,1e-04,0.8799999952316284,0.5418026447296143,0.5418026447296143
763,1.0,0.00013543208478949964,0.00013543208478949964,1e-04,0.8799999952316284,0.5420394539833069,0.5420394539833069
764,1.0,0.0001352318504359573,0.0001352318504359573,1e-04,0.8799999952316284,0.5422837734222412,0.5422837734222412
765,1.0,0.00013506022514775395,0.00013506022514775395,1e-04,0.8799999952316284,0.5423391461372375,0.5423391461372375
766,1.0,0.0001348790538031608,0.0001348790538031608,1e-04,0.8799999952316284,0.5421426892280579,0.5421426892280579
767,1.0,0.0001346716599073261,0.0001346716599073261,1e-04,0.8799999952316284,0.5420367121696472,0.5420367121696472
768,1.0,0.0001344916963716969,0.0001344916963716969,1e-04,0.8799999952316284,0.5418245792388916,0.5418245792388916
769,1.0,0.00013430934632197022,0.00013430934632197022,1e-04,0.8799999952316284,0.5420194864273071,0.5420194864273071
770,1.0,0.0001341246097581461,0.0001341246097581461,1e-04,0.8799999952316284,0.542113721370697,0.542113721370697
771,1.0,0.0001339315203949809,0.0001339315203949809,1e-04,0.8799999952316284,0.5420703887939453,0.5420703887939453
772,1.0,0.00013375392882153392,0.00013375392882153392,1e-04,0.8799999952316284,0.5423017144203186,0.5423017144203186
773,1.0,0.0001335644192295149,0.0001335644192295149,1e-04,0.8799999952316284,0.5427452921867371,0.5427452921867371
774,1.0,0.00013337848940864205,0.00013337848940864205,1e-04,0.8799999952316284,0.5423979759216309,0.5423979759216309
775,1.0,0.00013321997539605945,0.00013321997539605945,1e-04,0.8799999952316284,0.5422827005386353,0.5422827005386353
776,1.0,0.00013303880405146629,0.00013303880405146629,1e-04,0.8799999952316284,0.542430579662323,0.542430579662323
777,1.0,0.00013285288878250867,0.00013285288878250867,1e-04,0.8799999952316284,0.5420961976051331,0.5420961976051331
778,1.0,0.00013265384768601507,0.00013265384768601507,1e-04,0.8799999952316284,0.5421145558357239,0.5421145558357239
779,1.0,0.0001324881741311401,0.0001324881741311401,1e-04,0.8799999952316284,0.5422043800354004,0.5422043800354004
780,1.0,0.00013232845230959356,0.00013232845230959356,1e-04,0.8799999952316284,0.5421668291091919,0.5421668291091919
781,1.0,0.00013213418424129486,0.00013213418424129486,1e-04,0.8799999952316284,0.5420780777931213,0.5420780777931213
782,1.0,0.00013194704661145806,0.00013194704661145806,1e-04,0.8799999952316284,0.542473554611206,0.542473554611206
783,1.0,0.00013178256631363183,0.00013178256631363183,1e-04,0.8799999952316284,0.5419412851333618,0.5419412851333618
784,1.0,0.0001316073612542823,0.0001316073612542823,1e-04,0.8799999952316284,0.5417873859405518,0.5417873859405518
785,1.0,0.00013145599223207682,0.00013145599223207682,1e-04,0.8799999952316284,0.5415468215942383,0.5415468215942383
786,1.0,0.0001312498061452061,0.0001312498061452061,1e-04,0.8799999952316284,0.5414467453956604,0.5414467453956604
787,1.0,0.00013108650455251336,0.00013108650455251336,1e-04,0.8799999952316284,0.5415376424789429,0.5415376424789429
788,1.0,0.00013090418360661715,0.00013090418360661715,1e-04,0.8799999952316284,0.5415368676185608,0.5415368676185608
789,1.0,0.0001307242055190727,0.0001307242055190727,1e-04,0.8799999952316284,0.5415385365486145,0.5415385365486145
790,1.0,0.00013053826114628464,0.00013053826114628464,1e-04,0.8799999952316284,0.5413008332252502,0.5413008332252502
791,1.0,0.00013037139433436096,0.00013037139433436096,1e-04,0.8799999952316284,0.5414032936096191,0.5414032936096191
792,1.0,0.00013019738253206015,0.00013019738253206015,1e-04,0.8799999952316284,0.5413913130760193,0.5413913130760193
793,1.0,0.00013000429316889495,0.00013000429316889495,1e-04,0.8799999952316284,0.5410435795783997,0.5410435795783997
794,1.0,0.00012981597683392465,0.00012981597683392465,1e-04,0.8799999952316284,0.5408673882484436,0.5408673882484436
795,1.0,0.00012961693573743105,0.00012961693573743105,1e-04,0.8799999952316284,0.5410187244415283,0.5410187244415283
796,1.0,0.00012947390496265143,0.00012947390496265143,1e-04,0.8799999952316284,0.5409837961196899,0.5409837961196899
797,1.0,0.00012930587399750948,0.00012930587399750948,1e-04,0.8799999952316284,0.5410573482513428,0.5410573482513428
798,1.0,0.00012911278463434428,0.00012911278463434428,1e-04,0.8799999952316284,0.5410402417182922,0.5410402417182922
799,1.0,0.00012895901454612613,0.00012895901454612613,1e-04,0.8799999952316284,0.5407474637031555,0.5407474637031555
800,1.0,0.00012880169379059225,0.00012880169379059225,1e-04,0.8799999952316284,0.5408287048339844,0.5408287048339844
801,1.0,0.000128612169646658,0.000128612169646658,1e-04,0.8799999952316284,0.5408270955085754,0.5408270955085754
802,1.0,0.00012846558820456266,0.00012846558820456266,1e-04,0.8799999952316284,0.5408124923706055,0.5408124923706055
803,1.0,0.00012826058082282543,0.00012826058082282543,1e-04,0.8799999952316284,0.5403860211372375,0.5403860211372375
804,1.0,0.0001280913274968043,0.0001280913274968043,1e-04,0.8799999952316284,0.5404093861579895,0.5404093861579895
805,1.0,0.000127862484077923,0.000127862484077923,1e-04,0.8799999952316284,0.5402650237083435,0.5402650237083435
806,1.0,0.00012768966553267092,0.00012768966553267092,1e-04,0.8799999952316284,0.5402305722236633,0.5402305722236633
807,1.0,0.00012749657616950572,0.00012749657616950572,1e-04,0.8799999952316284,0.5401821136474609,0.5401821136474609
808,1.0,0.00012731780589092523,0.00012731780589092523,1e-04,0.8799999952316284,0.5401050448417664,0.5401050448417664
809,1.0,0.0001271294750040397,0.0001271294750040397,1e-04,0.8799999952316284,0.5400902032852173,0.5400902032852173
810,1.0,0.00012694830365944654,0.00012694830365944654,1e-04,0.8799999952316284,0.540091335773468,0.540091335773468
811,1.0,0.0001267719198949635,0.0001267719198949635,1e-04,0.8799999952316284,0.5399945974349976,0.5399945974349976
812,1.0,0.00012659789354074746,0.00012659789354074746,1e-04,0.8799999952316284,0.5400839447975159,0.5400839447975159
813,1.0,0.00012641791545320302,0.00012641791545320302,1e-04,0.8799999952316284,0.5399623513221741,0.5399623513221741
814,1.0,0.00012626178795471787,0.00012626178795471787,1e-04,0.8799999952316284,0.5401609539985657,0.5401609539985657
815,1.0,0.00012609017721842974,0.00012609017721842974,1e-04,0.8799999952316284,0.5403362512588501,0.5403362512588501
816,1.0,0.0001259316341020167,0.0001259316341020167,1e-04,0.8799999952316284,0.5404407382011414,0.5404407382011414
817,1.0,0.00012573617277666926,0.00012573617277666926,1e-04,0.8799999952316284,0.5403727889060974,0.5403727889060974
818,1.0,0.0001256050745723769,0.0001256050745723769,1e-04,0.8799999952316284,0.540576696395874,0.540576696395874
819,1.0,0.00012540961324702948,0.00012540961324702948,1e-04,0.8799999952316284,0.5403586030006409,0.5403586030006409
820,1.0,0.00012524750491138548,0.00012524750491138548,1e-04,0.8799999952316284,0.540311336517334,0.540311336517334
821,1.0,0.00012504725600592792,0.00012504725600592792,1e-04,0.8799999952316284,0.5401718020439148,0.5401718020439148
822,1.0,0.00012488516222219914,0.00012488516222219914,1e-04,0.8799999952316284,0.5398834347724915,0.5398834347724915
823,1.0,0.0001246992324013263,0.0001246992324013263,1e-04,0.8799999952316284,0.5398387908935547,0.5398387908935547
824,1.0,0.00012451210932340473,0.00012451210932340473,1e-04,0.8799999952316284,0.539864718914032,0.539864718914032
825,1.0,0.00012435000098776072,0.00012435000098776072,1e-04,0.8799999952316284,0.5401284694671631,0.5401284694671631
826,1.0,0.0001241700374521315,0.0001241700374521315,1e-04,0.8799999952316284,0.5400925874710083,0.5400925874710083
827,1.0,0.00012402581342030317,0.00012402581342030317,1e-04,0.8799999952316284,0.5398260354995728,0.5398260354995728
828,1.0,0.00012385776790324599,0.00012385776790324599,1e-04,0.8799999952316284,0.5396836996078491,0.5396836996078491
829,1.0,0.00012368970783427358,0.00012368970783427358,1e-04,0.8799999952316284,0.5398077368736267,0.5398077368736267
830,1.0,0.00012352403427939862,0.00012352403427939862,1e-04,0.8799999952316284,0.5393692255020142,0.5393692255020142
831,1.0,0.00012334523489698768,0.00012334523489698768,1e-04,0.8799999952316284,0.5393854975700378,0.5393854975700378
832,1.0,0.000123162884847261,0.000123162884847261,1e-04,0.8799999952316284,0.5390912890434265,0.5390912890434265
833,1.0,0.00012301270908210427,0.00012301270908210427,1e-04,0.8799999952316284,0.5393950939178467,0.5393950939178467
834,1.0,0.00012283155228942633,0.00012283155228942633,1e-04,0.8799999952316284,0.5391085743904114,0.5391085743904114
835,1.0,0.00012266468547750264,0.00012266468547750264,1e-04,0.8799999952316284,0.5392940640449524,0.5392940640449524
836,1.0,0.0001225252344738692,0.0001225252344738692,1e-04,0.8799999952316284,0.5397714376449585,0.5397714376449585
837,1.0,0.0001223524013767019,0.0001223524013767019,1e-04,0.8799999952316284,0.5398169159889221,0.5398169159889221
838,1.0,0.00012219625932630152,0.00012219625932630152,1e-04,0.8799999952316284,0.5394718050956726,0.5394718050956726
839,1.0,0.00012200079072499648,0.00012200079072499648,1e-04,0.8799999952316284,0.5393155813217163,0.5393155813217163
840,1.0,0.00012184465595055372,0.00012184465595055372,1e-04,0.8799999952316284,0.5389837026596069,0.5389837026596069
841,1.0,0.00012164443614892662,0.00012164443614892662,1e-04,0.8799999952316284,0.539076566696167,0.539076566696167
842,1.0,0.00012149305257480592,0.00012149305257480592,1e-04,0.8799999952316284,0.5391094088554382,0.5391094088554382
843,1.0,0.0001213249925058335,0.0001213249925058335,1e-04,0.8799999952316284,0.5388839244842529,0.5388839244842529
844,1.0,0.00012116527796024457,0.00012116527796024457,1e-04,0.8799999952316284,0.5387248396873474,0.5387248396873474
845,1.0,0.00012101272295694798,0.00012101272295694798,1e-04,0.8799999952316284,0.5382038950920105,0.5382038950920105
846,1.0,0.00012085538037354127,0.00012085538037354127,1e-04,0.8799999952316284,0.538093626499176,0.538093626499176
847,1.0,0.00012070997763657942,0.00012070997763657942,1e-04,0.8799999952316284,0.5380443334579468,0.5380443334579468
848,1.0,0.00012057052663294598,0.00012057052663294598,1e-04,0.8799999952316284,0.538021981716156,0.538021981716156
849,1.0,0.00012041557783959433,0.00012041557783959433,1e-04,0.8799999952316284,0.5380950570106506,0.5380950570106506
850,1.0,0.00012025229807477444,0.00012025229807477444,1e-04,0.8799999952316284,0.5381444692611694,0.5381444692611694
851,1.0,0.00012010449427179992,0.00012010449427179992,1e-04,0.8799999952316284,0.5377960801124573,0.5377960801124573
852,1.0,0.00011993404768873006,0.00011993404768873006,1e-04,0.8799999952316284,0.5379830002784729,0.5379830002784729
853,1.0,0.00011974931112490594,0.00011974931112490594,1e-04,0.8799999952316284,0.537549614906311,0.537549614906311
854,1.0,0.00011960390111198649,0.00011960390111198649,1e-04,0.8799999952316284,0.537700891494751,0.537700891494751
855,1.0,0.00011945609730901197,0.00011945609730901197,1e-04,0.8799999952316284,0.5376453995704651,0.5376453995704651
856,1.0,0.00011931307381018996,0.00011931307381018996,1e-04,0.8799999952316284,0.5376788377761841,0.5376788377761841
857,1.0,0.00011912476475117728,0.00011912476475117728,1e-04,0.8799999952316284,0.5376870632171631,0.5376870632171631
858,1.0,0.00011894239287357777,0.00011894239287357777,1e-04,0.8799999952316284,0.5375821590423584,0.5375821590423584
859,1.0,0.00011878865188919008,0.00011878865188919008,1e-04,0.8799999952316284,0.5376911163330078,0.5376911163330078
860,1.0,0.00011863250256283209,0.00011863250256283209,1e-04,0.8799999952316284,0.5374932289123535,0.5374932289123535
861,1.0,0.00011846920824609697,0.00011846920824609697,1e-04,0.8799999952316284,0.5376500487327576,0.5376500487327576
862,1.0,0.00011832618474727497,0.00011832618474727497,1e-04,0.8799999952316284,0.5375004410743713,0.5375004410743713
863,1.0,0.00011815812467830256,0.00011815812467830256,1e-04,0.8799999952316284,0.5372353196144104,0.5372353196144104
864,1.0,0.00011801628716057166,0.00011801628716057166,1e-04,0.8799999952316284,0.5369275808334351,0.5369275808334351
865,1.0,0.00011785061360569671,0.00011785061360569671,1e-04,0.8799999952316284,0.536813497543335,0.536813497543335
866,1.0,0.00011769447155529633,0.00011769447155529633,1e-04,0.8799999952316284,0.5365196466445923,0.5365196466445923
867,1.0,0.0001175383513327688,0.0001175383513327688,1e-04,0.8799999952316284,0.536512553691864,0.536512553691864
868,1.0,0.00011737981549231336,0.00011737981549231336,1e-04,0.8799999952316284,0.5361772775650024,0.5361772775650024
869,1.0,0.00011720102338586003,0.00011720102338586003,1e-04,0.8799999952316284,0.5362759232521057,0.5362759232521057
870,1.0,0.00011704608186846599,0.00011704608186846599,1e-04,0.8799999952316284,0.5358883142471313,0.5358883142471313
871,1.0,0.00011691378313116729,0.00011691378313116729,1e-04,0.8799999952316284,0.5358806848526001,0.5358806848526001
872,1.0,0.00011671354877762496,0.00011671354877762496,1e-04,0.8799999952316284,0.536132276058197,0.536132276058197
873,1.0,0.00011658123548841104,0.00011658123548841104,1e-04,0.8799999952316284,0.5361514091491699,0.5361514091491699
874,1.0,0.00011642390745691955,0.00011642390745691955,1e-04,0.8799999952316284,0.5364405512809753,0.5364405512809753
875,1.0,0.00011629279470071197,0.00011629279470071197,1e-04,0.8799999952316284,0.5359734892845154,0.5359734892845154
876,1.0,0.00011614500544965267,0.00011614500544965267,1e-04,0.8799999952316284,0.5356736183166504,0.5356736183166504
877,1.0,0.00011597693810472265,0.00011597693810472265,1e-04,0.8799999952316284,0.5356138348579407,0.5356138348579407
878,1.0,0.0001158267623395659,0.0001158267623395659,1e-04,0.8799999952316284,0.5356338024139404,0.5356338024139404
879,1.0,0.00011569923663046211,0.00011569923663046211,1e-04,0.8799999952316284,0.5354205965995789,0.5354205965995789
880,1.0,0.00011552999058039859,0.00011552999058039859,1e-04,0.8799999952316284,0.5355966091156006,0.5355966091156006
881,1.0,0.00011537503451108932,0.00011537503451108932,1e-04,0.8799999952316284,0.5354296565055847,0.5354296565055847
882,1.0,0.00011520102270878851,0.00011520102270878851,1e-04,0.8799999952316284,0.5353782773017883,0.5353782773017883
883,1.0,0.00011504964641062543,0.00011504964641062543,1e-04,0.8799999952316284,0.535250723361969,0.535250723361969
884,1.0,0.00011487682058941573,0.00011487682058941573,1e-04,0.8799999952316284,0.5353374481201172,0.5353374481201172
885,1.0,0.00011473736958578229,0.00011473736958578229,1e-04,0.8799999952316284,0.5352835655212402,0.5352835655212402
886,1.0,0.00011460506357252598,0.00011460506357252598,1e-04,0.8799999952316284,0.5353466868400574,0.5353466868400574
887,1.0,0.0001144536945503205,0.0001144536945503205,1e-04,0.8799999952316284,0.5355787873268127,0.5355787873268127
888,1.0,0.00011431184248067439,0.00011431184248067439,1e-04,0.8799999952316284,0.5354726314544678,0.5354726314544678
889,1.0,0.00011415452900109813,0.00011415452900109813,1e-04,0.8799999952316284,0.5355029702186584,0.5355029702186584
890,1.0,0.0001139864616561681,0.0001139864616561681,1e-04,0.8799999952316284,0.5352952480316162,0.5352952480316162
891,1.0,0.00011382078810129315,0.00011382078810129315,1e-04,0.8799999952316284,0.5355392694473267,0.5355392694473267
892,1.0,0.00011365870159352198,0.00011365870159352198,1e-04,0.8799999952316284,0.5355154275894165,0.5355154275894165
893,1.0,0.00011352996079949662,0.00011352996079949662,1e-04,0.8799999952316284,0.535690188407898,0.535690188407898
894,1.0,0.00011335832823533565,0.00011335832823533565,1e-04,0.8799999952316284,0.5356515645980835,0.5356515645980835
895,1.0,0.00011321173224132508,0.00011321173224132508,1e-04,0.8799999952316284,0.5361684560775757,0.5361684560775757
896,1.0,0.00011304605868645012,0.00011304605868645012,1e-04,0.8799999952316284,0.5360566973686218,0.5360566973686218
897,1.0,0.00011291970440652221,0.00011291970440652221,1e-04,0.8799999952316284,0.5357638001441956,0.5357638001441956
898,1.0,0.00011275880387984216,0.00011275880387984216,1e-04,0.8799999952316284,0.5357297658920288,0.5357297658920288
899,1.0,0.00011260385508649051,0.00011260385508649051,1e-04,0.8799999952316284,0.535531759262085,0.535531759262085
900,1.0,0.00011246441135881469,0.00011246441135881469,1e-04,0.8799999952316284,0.5356564521789551,0.5356564521789551
901,1.0,0.0001123070833273232,0.0001123070833273232,1e-04,0.8799999952316284,0.5355332493782043,0.5355332493782043
902,1.0,0.00011215570702916011,0.00011215570702916011,1e-04,0.8799999952316284,0.5352823734283447,0.5352823734283447
903,1.0,0.0001120138622354716,0.0001120138622354716,1e-04,0.8799999952316284,0.5353976488113403,0.5353976488113403
904,1.0,0.00011187679774593562,0.00011187679774593562,1e-04,0.8799999952316284,0.5354084372520447,0.5354084372520447
905,1.0,0.00011172662198077887,0.00011172662198077887,1e-04,0.8799999952316284,0.5354278683662415,0.5354278683662415
906,1.0,0.00011159550194861367,0.00011159550194861367,1e-04,0.8799999952316284,0.5350067615509033,0.5350067615509033
907,1.0,0.00011143460142193362,0.00011143460142193362,1e-04,0.8799999952316284,0.535038411617279,0.535038411617279
908,1.0,0.00011127846664749086,0.00011127846664749086,1e-04,0.8799999952316284,0.5350595712661743,0.5350595712661743
909,1.0,0.00011113781511085108,0.00011113781511085108,1e-04,0.8799999952316284,0.5346131324768066,0.5346131324768066
910,1.0,0.0001110067023546435,0.0001110067023546435,1e-04,0.8799999952316284,0.5349876284599304,0.5349876284599304
911,1.0,0.00011085532605648041,0.00011085532605648041,1e-04,0.8799999952316284,0.5351789593696594,0.5351789593696594
912,1.0,0.00011070395703427494,0.00011070395703427494,1e-04,0.8799999952316284,0.5347743034362793,0.5347743034362793
913,1.0,0.00011056211951654404,0.00011056211951654404,1e-04,0.8799999952316284,0.5347710251808167,0.5347710251808167
914,1.0,0.00011042385449400172,0.00011042385449400172,1e-04,0.8799999952316284,0.534826397895813,0.534826397895813
915,1.0,0.00011029393499484286,0.00011029393499484286,1e-04,0.8799999952316284,0.5348911881446838,0.5348911881446838
916,1.0,0.0001101544767152518,0.0001101544767152518,1e-04,0.8799999952316284,0.5350401401519775,0.5350401401519775
917,1.0,0.00010998045763699338,0.00010998045763699338,1e-04,0.8799999952316284,0.5346575975418091,0.5346575975418091
918,1.0,0.00010983386164298281,0.00010983386164298281,1e-04,0.8799999952316284,0.5348643064498901,0.5348643064498901
919,1.0,0.00010970989387715235,0.00010970989387715235,1e-04,0.8799999952316284,0.5348421335220337,0.5348421335220337
920,1.0,0.00010956926416838542,0.00010956926416838542,1e-04,0.8799999952316284,0.5351002216339111,0.5351002216339111
921,1.0,0.00010941549408016726,0.00010941549408016726,1e-04,0.8799999952316284,0.5351229310035706,0.5351229310035706
922,1.0,0.0001092748498194851,0.0001092748498194851,1e-04,0.8799999952316284,0.535035252571106,0.535035252571106
923,1.0,0.00010913539881585166,0.00010913539881585166,1e-04,0.8799999952316284,0.5353220701217651,0.5353220701217651
924,1.0,0.00010899475455516949,0.00010899475455516949,1e-04,0.8799999952316284,0.5354470014572144,0.5354470014572144
925,1.0,0.00010886960808420554,0.00010886960808420554,1e-04,0.8799999952316284,0.5351912975311279,0.5351912975311279
926,1.0,0.00010873253631871194,0.00010873253631871194,1e-04,0.8799999952316284,0.5351804494857788,0.5351804494857788
927,1.0,0.0001085692347260192,0.0001085692347260192,1e-04,0.8799999952316284,0.535016655921936,0.535016655921936
928,1.0,0.00010842144547495991,0.00010842144547495991,1e-04,0.8799999952316284,0.5353602766990662,0.5353602766990662
929,1.0,0.0001082652888726443,0.0001082652888726443,1e-04,0.8799999952316284,0.5354461669921875,0.5354461669921875
930,1.0,0.00010813299741130322,0.00010813299741130322,1e-04,0.8799999952316284,0.535646915435791,0.535646915435791
931,1.0,0.00010798520088428631,0.00010798520088428631,1e-04,0.8799999952316284,0.5354477167129517,0.5354477167129517
932,1.0,0.0001078362183761783,0.0001078362183761783,1e-04,0.8799999952316284,0.5353273153305054,0.5353273153305054
933,1.0,0.00010770748485811055,0.00010770748485811055,1e-04,0.8799999952316284,0.5352914929389954,0.5352914929389954
934,1.0,0.00010757160634966567,0.00010757160634966567,1e-04,0.8799999952316284,0.5352718830108643,0.5352718830108643
935,1.0,0.00010743334132712334,0.00010743334132712334,1e-04,0.8799999952316284,0.5352001190185547,0.5352001190185547
936,1.0,0.00010731176735134795,0.00010731176735134795,1e-04,0.8799999952316284,0.5350512862205505,0.5350512862205505
937,1.0,0.00010718542034737766,0.00010718542034737766,1e-04,0.8799999952316284,0.5351388454437256,0.5351388454437256
938,1.0,0.00010703762382036075,0.00010703762382036075,1e-04,0.8799999952316284,0.5351057648658752,0.5351057648658752
939,1.0,0.00010689578630262986,0.00010689578630262986,1e-04,0.8799999952316284,0.5348964929580688,0.5348964929580688
940,1.0,0.00010675275552785024,0.00010675275552785024,1e-04,0.8799999952316284,0.5347854495048523,0.5347854495048523
941,1.0,0.00010662283602869138,0.00010662283602869138,1e-04,0.8799999952316284,0.534633994102478,0.534633994102478
942,1.0,0.0001064702810253948,0.0001064702810253948,1e-04,0.8799999952316284,0.5348109602928162,0.5348109602928162
943,1.0,0.0001063439340214245,0.0001063439340214245,1e-04,0.8799999952316284,0.5350188612937927,0.5350188612937927
944,1.0,0.00010619850945658982,0.00010619850945658982,1e-04,0.8799999952316284,0.5348537564277649,0.5348537564277649
945,1.0,0.00010607334843371063,0.00010607334843371063,1e-04,0.8799999952316284,0.534965991973877,0.534965991973877
946,1.0,0.00010592078615445644,0.00010592078615445644,1e-04,0.8799999952316284,0.5350595712661743,0.5350595712661743
947,1.0,0.00010581590322544798,0.00010581590322544798,1e-04,0.8799999952316284,0.5350009799003601,0.5350009799003601
948,1.0,0.00010567405843175948,0.00010567405843175948,1e-04,0.8799999952316284,0.5349792242050171,0.5349792242050171
949,1.0,0.00010556440975051373,0.00010556440975051373,1e-04,0.8799999952316284,0.5350697040557861,0.5350697040557861
950,1.0,0.00010540706716710702,0.00010540706716710702,1e-04,0.8799999952316284,0.5349212884902954,0.5349212884902954
951,1.0,0.00010526643018238246,0.00010526643018238246,1e-04,0.8799999952316284,0.5347501635551453,0.5347501635551453
952,1.0,0.00010513292363611981,0.00010513292363611981,1e-04,0.8799999952316284,0.5348493456840515,0.5348493456840515
953,1.0,0.00010499823838472366,0.00010499823838472366,1e-04,0.8799999952316284,0.5347684621810913,0.5347684621810913
954,1.0,0.00010486116661923006,0.00010486116661923006,1e-04,0.8799999952316284,0.5348549485206604,0.5348549485206604
955,1.0,0.00010472290887264535,0.00010472290887264535,1e-04,0.8799999952316284,0.534731924533844,0.534731924533844
956,1.0,0.00010457988537382334,0.00010457988537382334,1e-04,0.8799999952316284,0.5347517728805542,0.5347517728805542
957,1.0,0.00010446784290252253,0.00010446784290252253,1e-04,0.8799999952316284,0.5347984433174133,0.5347984433174133
958,1.0,0.00010431646660435945,0.00010431646660435945,1e-04,0.8799999952316284,0.5348919034004211,0.5348919034004211
959,1.0,0.00010417820885777473,0.00010417820885777473,1e-04,0.8799999952316284,0.5351831316947937,0.5351831316947937
960,1.0,0.00010403159103589132,0.00010403159103589132,1e-04,0.8899999856948853,0.5349743366241455,0.5349743366241455
961,1.0,0.00010390763054601848,0.00010390763054601848,1e-04,0.8899999856948853,0.5349953770637512,0.5349953770637512
962,1.0,0.00010377771104685962,0.00010377771104685962,1e-04,0.8899999856948853,0.5348221063613892,0.5348221063613892
963,1.0,0.00010363588080508634,0.00010363588080508634,1e-04,0.8899999856948853,0.5349822044372559,0.5349822044372559
964,1.0,0.00010351429955335334,0.00010351429955335334,1e-04,0.8899999856948853,0.5349390506744385,0.5349390506744385
965,1.0,0.00010334266698919237,0.00010334266698919237,1e-04,0.8899999856948853,0.5353062152862549,0.5353062152862549
966,1.0,0.00010323062451789156,0.00010323062451789156,1e-04,0.8899999856948853,0.5353454351425171,0.5353454351425171
967,1.0,0.00010310785000910982,0.00010310785000910982,1e-04,0.8899999856948853,0.5348608493804932,0.5348608493804932
968,1.0,0.00010297197877662256,0.00010297197877662256,1e-04,0.8899999856948853,0.5345261096954346,0.5345261096954346
969,1.0,0.00010284325253451243,0.00010284325253451243,1e-04,0.8899999856948853,0.5343749523162842,0.5343749523162842
970,1.0,0.00010271094652125612,0.00010271094652125612,1e-04,0.8899999856948853,0.5344863533973694,0.5344863533973694
971,1.0,0.00010255718370899558,0.00010255718370899558,1e-04,0.8899999856948853,0.5342708230018616,0.5342708230018616
972,1.0,0.00010243799624731764,0.00010243799624731764,1e-04,0.8899999856948853,0.5343454480171204,0.5343454480171204
973,1.0,0.00010231284250039607,0.00010231284250039607,1e-04,0.8899999856948853,0.5343706011772156,0.5343706011772156
974,1.0,0.00010216026566922665,0.00010216026566922665,1e-04,0.8899999856948853,0.5344144701957703,0.5344144701957703
975,1.0,0.00010204108548350632,0.00010204108548350632,1e-04,0.8899999856948853,0.5343701839447021,0.5343701839447021
976,1.0,0.00010190638568019494,0.00010190638568019494,1e-04,0.8899999856948853,0.5345547199249268,0.5345547199249268
977,1.0,0.00010178004595218226,0.00010178004595218226,1e-04,0.8899999856948853,0.5347877740859985,0.5347877740859985
978,1.0,0.0001016799287754111,0.0001016799287754111,1e-04,0.8899999856948853,0.5346760749816895,0.5346760749816895
979,1.0,0.00010156072676181793,0.00010156072676181793,1e-04,0.8899999856948853,0.5347994565963745,0.5347994565963745
980,1.0,0.00010144749830942601,0.00010144749830942601,1e-04,0.8899999856948853,0.5350345373153687,0.5350345373153687
981,1.0,0.00010131042654393241,0.00010131042654393241,1e-04,0.8899999856948853,0.5349265933036804,0.5349265933036804
982,1.0,0.00010119003854924813,0.00010119003854924813,1e-04,0.8899999856948853,0.5350292921066284,0.5350292921066284
983,1.0,0.00010104939428856596,0.00010104939428856596,1e-04,0.8899999856948853,0.534909725189209,0.534909725189209
984,1.0,0.00010090754949487746,0.00010090754949487746,1e-04,0.8899999856948853,0.5349631309509277,0.5349631309509277
985,1.0,0.00010080265928991139,0.00010080265928991139,1e-04,0.8899999856948853,0.5350350737571716,0.5350350737571716
986,1.0,0.00010069300333270803,0.00010069300333270803,1e-04,0.8899999856948853,0.5349300503730774,0.5349300503730774
987,1.0,0.00010056189057650045,0.00010056189057650045,1e-04,0.8899999856948853,0.5352154970169067,0.5352154970169067
988,1.0,0.00010042006033472717,0.00010042006033472717,1e-04,0.8899999856948853,0.5351865291595459,0.5351865291595459
989,1.0,0.00010031397687271237,0.00010031397687271237,1e-04,0.8899999856948853,0.5353176593780518,0.5353176593780518
990,1.0,0.00010018881584983319,0.00010018881584983319,1e-04,0.8899999856948853,0.5352452993392944,0.5352452993392944
991,1.0,0.00010004101932281628,0.00010004101932281628,1e-04,0.8899999856948853,0.5355846285820007,0.5355846285820007
992,1.0,9.991467231884599e-05,9.991467231884599e-05,1e-04,0.8899999856948853,0.5357555150985718,0.5357555150985718
993,1.0,9.978237358154729e-05,9.978237358154729e-05,1e-04,0.8899999856948853,0.5358219742774963,0.5358219742774963
994,1.0,9.965483332052827e-05,9.965483332052827e-05,1e-04,0.8899999856948853,0.5355066657066345,0.5355066657066345
995,1.0,9.954159759217873e-05,9.954159759217873e-05,1e-04,0.8899999856948853,0.5356041193008423,0.5356041193008423
996,1.0,9.938068978954107e-05,9.938068978954107e-05,1e-04,0.8899999856948853,0.5356972813606262,0.5356972813606262
997,1.0,9.926984057528898e-05,9.926984057528898e-05,1e-04,0.8899999856948853,0.5356839895248413,0.5356839895248413
998,1.0,9.916732960846275e-05,9.916732960846275e-05,1e-04,0.8899999856948853,0.5357086062431335,0.5357086062431335
999,1.0,9.900046279653907e-05,9.900046279653907e-05,1e-04,0.8899999856948853,0.5357040166854858,0.5357040166854858
