epoch,accuracy,categorical_crossentropy,loss,lr,val_accuracy,val_categorical_crossentropy,val_loss
0,0.02199999988079071,1.6935679912567139,1.6935679912567139,0.001,0.019111111760139465,1.6315854787826538,1.6315854787826538
1,0.8859999775886536,0.7499690055847168,0.7499690055847168,0.001,0.019111111760139465,1.6201906204223633,1.6201906204223633
2,0.9039999842643738,0.4422696530818939,0.4422696530818939,0.001,0.3531111180782318,1.6089332103729248,1.6089332103729248
3,0.9160000085830688,0.344924658536911,0.344924658536911,0.001,0.35333332419395447,1.597562551498413,1.597562551498413
4,0.9359999895095825,0.3012261688709259,0.3012261688709259,0.001,0.35333332419395447,1.5858867168426514,1.5858867168426514
5,0.9359999895095825,0.27398601174354553,0.27398601174354553,0.001,0.35333332419395447,1.5742073059082031,1.5742073059082031
6,0.9359999895095825,0.25921523571014404,0.25921523571014404,0.001,0.35333332419395447,1.5628801584243774,1.5628801584243774
7,0.9359999895095825,0.24742479622364044,0.24742479622364044,0.001,0.35333332419395447,1.552111268043518,1.552111268043518
8,0.9359999895095825,0.23436231911182404,0.23436231911182404,0.001,0.35333332419395447,1.541879653930664,1.541879653930664
9,0.9359999895095825,0.22332298755645752,0.22332298755645752,0.001,0.35333332419395447,1.5320765972137451,1.5320765972137451
10,0.9380000233650208,0.21563279628753662,0.21563279628753662,0.001,0.35333332419395447,1.5228023529052734,1.5228023529052734
11,0.9380000233650208,0.20877139270305634,0.20877139270305634,0.001,0.35333332419395447,1.5141716003417969,1.5141716003417969
12,0.9380000233650208,0.202033132314682,0.202033132314682,0.001,0.35333332419395447,1.5063884258270264,1.5063884258270264
13,0.9380000233650208,0.1952020227909088,0.1952020227909088,0.001,0.35333332419395447,1.4994122982025146,1.4994122982025146
14,0.9380000233650208,0.18996603786945343,0.18996603786945343,0.001,0.35333332419395447,1.4931825399398804,1.4931825399398804
15,0.9419999718666077,0.18497313559055328,0.18497313559055328,0.001,0.35333332419395447,1.4875736236572266,1.4875736236572266
16,0.9459999799728394,0.17819374799728394,0.17819374799728394,0.001,0.35333332419395447,1.4826534986495972,1.4826534986495972
17,0.949999988079071,0.1726311594247818,0.1726311594247818,0.001,0.35333332419395447,1.4786423444747925,1.4786423444747925
18,0.949999988079071,0.16804033517837524,0.16804033517837524,0.001,0.35333332419395447,1.4754947423934937,1.4754947423934937
19,0.9539999961853027,0.16237537562847137,0.16237537562847137,0.001,0.35333332419395447,1.473156213760376,1.473156213760376
20,0.9539999961853027,0.15654906630516052,0.15654906630516052,0.001,0.35333332419395447,1.4715112447738647,1.4715112447738647
21,0.9539999961853027,0.1518619954586029,0.1518619954586029,0.001,0.35333332419395447,1.470025658607483,1.470025658607483
22,0.9559999704360962,0.14668309688568115,0.14668309688568115,0.001,0.35333332419395447,1.4686319828033447,1.4686319828033447
23,0.9559999704360962,0.1412230283021927,0.1412230283021927,0.001,0.35333332419395447,1.4676626920700073,1.4676626920700073
24,0.9559999704360962,0.1362341344356537,0.1362341344356537,0.001,0.35333332419395447,1.4671473503112793,1.4671473503112793
25,0.9580000042915344,0.1310514509677887,0.1310514509677887,0.001,0.35333332419395447,1.4670515060424805,1.4670515060424805
26,0.9580000042915344,0.12607888877391815,0.12607888877391815,0.001,0.35333332419395447,1.4673516750335693,1.4673516750335693
27,0.9620000123977661,0.12166015058755875,0.12166015058755875,0.001,0.35333332419395447,1.467828631401062,1.467828631401062
28,0.9639999866485596,0.11771728098392487,0.11771728098392487,0.001,0.35333332419395447,1.468234896659851,1.468234896659851
29,0.9599999785423279,0.1274435818195343,0.1274435818195343,0.001,0.35333332419395447,1.469608187675476,1.469608187675476
30,0.9679999947547913,0.1421404331922531,0.1421404331922531,0.001,0.35333332419395447,1.4682053327560425,1.4682053327560425
31,0.9580000042915344,0.12622471153736115,0.12622471153736115,0.001,0.35333332419395447,1.4698690176010132,1.4698690176010132
32,0.9599999785423279,0.12803612649440765,0.12803612649440765,0.001,0.35333332419395447,1.4729101657867432,1.4729101657867432
33,0.9639999866485596,0.11419007182121277,0.11419007182121277,0.001,0.35333332419395447,1.4743636846542358,1.4743636846542358
34,0.9660000205039978,0.11787082254886627,0.11787082254886627,0.001,0.35333332419395447,1.4726701974868774,1.4726701974868774
35,0.9660000205039978,0.11473190039396286,0.11473190039396286,0.001,0.35333332419395447,1.468924880027771,1.468924880027771
36,0.9679999947547913,0.10449319332838058,0.10449319332838058,0.001,0.35333332419395447,1.4663015604019165,1.4663015604019165
37,0.9679999947547913,0.10349547863006592,0.10349547863006592,0.001,0.35333332419395447,1.465872883796692,1.465872883796692
38,0.9660000205039978,0.10543259978294373,0.10543259978294373,0.001,0.35333332419395447,1.465414047241211,1.465414047241211
39,0.9679999947547913,0.09378471970558167,0.09378471970558167,0.001,0.35333332419395447,1.4656193256378174,1.4656193256378174
40,0.9700000286102295,0.09320400655269623,0.09320400655269623,0.001,0.35333332419395447,1.4654756784439087,1.4654756784439087
41,0.9700000286102295,0.09331919997930527,0.09331919997930527,0.001,0.35333332419395447,1.464025855064392,1.464025855064392
42,0.9700000286102295,0.08610566705465317,0.08610566705465317,0.001,0.35333332419395447,1.4624830484390259,1.4624830484390259
43,0.9700000286102295,0.08435941487550735,0.08435941487550735,0.001,0.35333332419395447,1.4613630771636963,1.4613630771636963
44,0.972000002861023,0.08221051841974258,0.08221051841974258,0.001,0.35333332419395447,1.4613268375396729,1.4613268375396729
45,0.972000002861023,0.0771656483411789,0.0771656483411789,0.001,0.35333332419395447,1.4627355337142944,1.4627355337142944
46,0.9760000109672546,0.07390052825212479,0.07390052825212479,0.001,0.35333332419395447,1.4634697437286377,1.4634697437286377
47,0.9779999852180481,0.0724235326051712,0.0724235326051712,0.001,0.35333332419395447,1.4611612558364868,1.4611612558364868
48,0.9779999852180481,0.06698639690876007,0.06698639690876007,0.001,0.35333332419395447,1.4588637351989746,1.4588637351989746
49,0.9739999771118164,0.06601548939943314,0.06601548939943314,0.001,0.35333332419395447,1.4581102132797241,1.4581102132797241
50,0.9800000190734863,0.06177370622754097,0.06177370622754097,0.001,0.35333332419395447,1.457261085510254,1.457261085510254
51,0.9819999933242798,0.05983756482601166,0.05983756482601166,0.001,0.35333332419395447,1.4545100927352905,1.4545100927352905
52,0.984000027179718,0.05596079304814339,0.05596079304814339,0.001,0.35333332419395447,1.452815294265747,1.452815294265747
53,0.984000027179718,0.055672537535429,0.055672537535429,0.001,0.35333332419395447,1.4496651887893677,1.4496651887893677
54,0.9879999756813049,0.05426255241036415,0.05426255241036415,0.001,0.35333332419395447,1.4494222402572632,1.4494222402572632
55,0.9879999756813049,0.04971598461270332,0.04971598461270332,0.001,0.35333332419395447,1.448224425315857,1.448224425315857
56,0.9900000095367432,0.04778750613331795,0.04778750613331795,0.001,0.35333332419395447,1.4477249383926392,1.4477249383926392
57,0.9860000014305115,0.04400023818016052,0.04400023818016052,0.001,0.35333332419395447,1.4476784467697144,1.4476784467697144
58,0.9900000095367432,0.04180902615189552,0.04180902615189552,0.001,0.35333332419395447,1.4461042881011963,1.4461042881011963
59,0.9879999756813049,0.04332950711250305,0.04332950711250305,0.001,0.35333332419395447,1.4473665952682495,1.4473665952682495
60,0.9980000257492065,0.04191838577389717,0.04191838577389717,0.001,0.35333332419395447,1.4408836364746094,1.4408836364746094
61,0.9879999756813049,0.05158386752009392,0.05158386752009392,0.001,0.35333332419395447,1.4430749416351318,1.4430749416351318
62,0.9879999756813049,0.03799432888627052,0.03799432888627052,0.001,0.35333332419395447,1.4446721076965332,1.4446721076965332
63,0.9959999918937683,0.0439254455268383,0.0439254455268383,0.001,0.35333332419395447,1.4365147352218628,1.4365147352218628
64,0.984000027179718,0.05164007470011711,0.05164007470011711,0.001,0.35333332419395447,1.4381895065307617,1.4381895065307617
65,0.9879999756813049,0.04390512779355049,0.04390512779355049,0.001,0.35333332419395447,1.446966528892517,1.446966528892517
66,0.9940000176429749,0.033229049295186996,0.033229049295186996,0.001,0.35333332419395447,1.4525556564331055,1.4525556564331055
67,0.9940000176429749,0.0464557521045208,0.0464557521045208,0.001,0.35333332419395447,1.4442113637924194,1.4442113637924194
68,0.9879999756813049,0.04680238291621208,0.04680238291621208,0.001,0.35333332419395447,1.4394645690917969,1.4394645690917969
69,0.9860000014305115,0.04919089749455452,0.04919089749455452,0.001,0.35333332419395447,1.4420703649520874,1.4420703649520874
70,0.9879999756813049,0.03791533038020134,0.03791533038020134,0.001,0.35333332419395447,1.4469988346099854,1.4469988346099854
71,0.9959999918937683,0.03366778418421745,0.03366778418421745,0.001,0.35333332419395447,1.446224331855774,1.446224331855774
72,0.9980000257492065,0.03757517784833908,0.03757517784833908,0.001,0.35333332419395447,1.4399267435073853,1.4399267435073853
73,0.9919999837875366,0.02935955487191677,0.02935955487191677,0.001,0.35333332419395447,1.4352765083312988,1.4352765083312988
74,0.9919999837875366,0.03168275207281113,0.03168275207281113,0.001,0.35333332419395447,1.435448408126831,1.435448408126831
75,0.9879999756813049,0.027294792234897614,0.027294792234897614,0.001,0.35333332419395447,1.439194917678833,1.439194917678833
76,0.9959999918937683,0.027266131713986397,0.027266131713986397,0.001,0.35333332419395447,1.4370323419570923,1.4370323419570923
77,0.9959999918937683,0.02353755384683609,0.02353755384683609,0.001,0.35333332419395447,1.4348342418670654,1.4348342418670654
78,0.9959999918937683,0.023194104433059692,0.023194104433059692,0.001,0.35333332419395447,1.4357455968856812,1.4357455968856812
79,0.9959999918937683,0.019842857494950294,0.019842857494950294,0.001,0.35333332419395447,1.439214825630188,1.439214825630188
80,1.0,0.01776811294257641,0.01776811294257641,0.001,0.35333332419395447,1.441182255744934,1.441182255744934
81,1.0,0.017435207962989807,0.017435207962989807,0.001,0.35333332419395447,1.4388325214385986,1.4388325214385986
82,0.9980000257492065,0.015887878835201263,0.015887878835201263,0.001,0.35333332419395447,1.438280701637268,1.438280701637268
83,1.0,0.014909193851053715,0.014909193851053715,0.001,0.35333332419395447,1.4404144287109375,1.4404144287109375
84,1.0,0.013953875750303268,0.013953875750303268,0.001,0.35333332419395447,1.4393589496612549,1.4393589496612549
85,1.0,0.012377412058413029,0.012377412058413029,0.001,0.35333332419395447,1.4401620626449585,1.440162181854248
86,1.0,0.010604189708828926,0.010604189708828926,0.001,0.35333332419395447,1.4394742250442505,1.4394742250442505
87,1.0,0.009541654027998447,0.009541654027998447,0.001,0.35333332419395447,1.4376332759857178,1.4376332759857178
88,1.0,0.00982949323952198,0.00982949323952198,0.001,0.35333332419395447,1.4371601343154907,1.4371601343154907
89,1.0,0.008485168218612671,0.008485168218612671,0.001,0.35333332419395447,1.4381024837493896,1.4381024837493896
90,1.0,0.007509050890803337,0.007509050890803337,0.001,0.35333332419395447,1.4391862154006958,1.4391863346099854
91,1.0,0.007256485056132078,0.007256485056132078,0.001,0.35333332419395447,1.4396748542785645,1.4396748542785645
92,1.0,0.006690779700875282,0.006690779700875282,0.001,0.35333332419395447,1.4377024173736572,1.4377024173736572
93,1.0,0.005966718774288893,0.005966718774288893,0.001,0.35333332419395447,1.4357542991638184,1.4357542991638184
94,1.0,0.005675897933542728,0.005675897933542728,0.001,0.35333332419395447,1.4351651668548584,1.4351651668548584
95,1.0,0.005307172425091267,0.005307172425091267,0.001,0.35333332419395447,1.4350816011428833,1.4350816011428833
96,1.0,0.0049048420041799545,0.0049048420041799545,0.001,0.35333332419395447,1.434544563293457,1.434544563293457
97,1.0,0.004701549652963877,0.004701549652963877,0.001,0.35333332419395447,1.4336272478103638,1.4336272478103638
98,1.0,0.004206949379295111,0.004206949379295111,0.001,0.35333332419395447,1.4327973127365112,1.4327973127365112
99,1.0,0.004018910229206085,0.004018910229206085,0.001,0.35333332419395447,1.4318596124649048,1.4318596124649048
100,1.0,0.003827958134934306,0.003827958134934306,0.001,0.35333332419395447,1.4309622049331665,1.4309622049331665
101,1.0,0.0035675859544426203,0.0035675859544426203,0.001,0.35333332419395447,1.4299521446228027,1.4299521446228027
102,1.0,0.003345198230817914,0.003345198230817914,0.001,0.35333332419395447,1.4283924102783203,1.4283924102783203
103,1.0,0.0031490325927734375,0.0031490325927734375,0.001,0.35333332419395447,1.4269073009490967,1.4269073009490967
104,1.0,0.0029771060217171907,0.0029771060217171907,0.001,0.35333332419395447,1.4264453649520874,1.4264453649520874
105,1.0,0.0028883309569209814,0.0028883309569209814,0.001,0.35333332419395447,1.4273960590362549,1.4273960590362549
106,1.0,0.002729011233896017,0.002729011233896017,0.001,0.35333332419395447,1.4286181926727295,1.4286181926727295
107,1.0,0.002550868084654212,0.002550868084654212,0.001,0.35333332419395447,1.4296562671661377,1.4296562671661377
108,1.0,0.0024413401260972023,0.0024413401260972023,0.001,0.35333332419395447,1.4305826425552368,1.4305826425552368
109,1.0,0.002304649446159601,0.002304649446159601,0.001,0.35333332419395447,1.4316976070404053,1.4316976070404053
110,1.0,0.002206625649705529,0.002206625649705529,0.001,0.35333332419395447,1.4328426122665405,1.4328426122665405
111,1.0,0.0021223865915089846,0.0021223865915089846,0.001,0.35333332419395447,1.434149980545044,1.434149980545044
112,1.0,0.002059785183519125,0.002059785183519125,0.001,0.35333332419395447,1.43528151512146,1.43528151512146
113,1.0,0.0019518762128427625,0.0019518762128427625,0.001,0.35333332419395447,1.4360591173171997,1.4360591173171997
114,1.0,0.0018782978877425194,0.0018782978877425194,0.001,0.35333332419395447,1.4364194869995117,1.4364194869995117
115,1.0,0.0018124995985999703,0.0018124995985999703,0.001,0.35333332419395447,1.4368067979812622,1.4368067979812622
116,1.0,0.0017526722513139248,0.0017526722513139248,0.001,0.35333332419395447,1.4375367164611816,1.4375367164611816
117,1.0,0.0016802839236333966,0.0016802839236333966,0.001,0.35333332419395447,1.4388301372528076,1.4388301372528076
118,1.0,0.0016233756905421615,0.0016233756905421615,0.001,0.35333332419395447,1.4401521682739258,1.4401521682739258
119,1.0,0.0015620056074112654,0.0015620056074112654,0.001,0.35333332419395447,1.4417970180511475,1.4417970180511475
120,1.0,0.0015074944822117686,0.0015074944822117686,0.001,0.35333332419395447,1.4433366060256958,1.4433366060256958
121,1.0,0.00146006781142205,0.00146006781142205,0.001,0.35333332419395447,1.4445946216583252,1.4445946216583252
122,1.0,0.0014221575111150742,0.0014221575111150742,0.001,0.35333332419395447,1.4456487894058228,1.4456487894058228
123,1.0,0.0013784959446638823,0.0013784959446638823,0.001,0.35333332419395447,1.446578025817871,1.446578025817871
124,1.0,0.0013376543065533042,0.0013376543065533042,0.001,0.35333332419395447,1.4474667310714722,1.4474667310714722
125,1.0,0.0013009494869038463,0.0013009494869038463,0.001,0.35333332419395447,1.4481432437896729,1.4481432437896729
126,1.0,0.0012655050959438086,0.0012655050959438086,0.001,0.35333332419395447,1.4489192962646484,1.4489192962646484
127,1.0,0.0012300274102017283,0.0012300274102017283,0.001,0.35333332419395447,1.4496482610702515,1.4496482610702515
128,1.0,0.001198643702082336,0.001198643702082336,0.001,0.35333332419395447,1.450373888015747,1.450373888015747
129,1.0,0.00117289531044662,0.00117289531044662,0.001,0.35333332419395447,1.4510507583618164,1.4510507583618164
130,1.0,0.0011448088334873319,0.0011448088334873319,0.001,0.35333332419395447,1.4518709182739258,1.4518709182739258
131,1.0,0.001116765895858407,0.001116765895858407,0.001,0.35333332419395447,1.4527000188827515,1.4527000188827515
132,1.0,0.0010899353073909879,0.0010899353073909879,0.001,0.35333332419395447,1.4536067247390747,1.4536067247390747
133,1.0,0.0010677110403776169,0.0010677110403776169,0.001,0.35333332419395447,1.4545683860778809,1.4545683860778809
134,1.0,0.0010441378690302372,0.0010441378690302372,0.001,0.35333332419395447,1.4554345607757568,1.4554345607757568
135,1.0,0.0010209481697529554,0.0010209481697529554,0.001,0.35333332419395447,1.4563407897949219,1.4563407897949219
136,1.0,0.0009991151746362448,0.0009991151746362448,0.001,0.35333332419395447,1.4570930004119873,1.4570930004119873
137,1.0,0.0009795468067750335,0.0009795468067750335,0.001,0.35333332419395447,1.4578009843826294,1.4578009843826294
138,1.0,0.0009595109149813652,0.0009595109149813652,0.001,0.35333332419395447,1.458314061164856,1.458314061164856
139,1.0,0.000940558675210923,0.000940558675210923,0.001,0.35333332419395447,1.458537220954895,1.458537220954895
140,1.0,0.0009228309500031173,0.0009228309500031173,0.001,0.35333332419395447,1.4587711095809937,1.4587711095809937
141,1.0,0.0009066056227311492,0.0009066056227311492,0.001,0.35333332419395447,1.4589251279830933,1.4589251279830933
142,1.0,0.0008895777282305062,0.0008895777282305062,0.001,0.35333332419395447,1.4591734409332275,1.4591734409332275
143,1.0,0.0008734801085665822,0.0008734801085665822,0.001,0.35333332419395447,1.4595255851745605,1.4595255851745605
144,1.0,0.000857423001434654,0.000857423001434654,0.001,0.35333332419395447,1.460128903388977,1.460128903388977
145,1.0,0.0008430529851466417,0.0008430529851466417,0.001,0.35333332419395447,1.4607487916946411,1.4607487916946411
146,1.0,0.000829122553113848,0.000829122553113848,0.001,0.35333332419395447,1.4614288806915283,1.4614288806915283
147,1.0,0.0008156158146448433,0.0008156158146448433,0.001,0.35333332419395447,1.4621474742889404,1.4621474742889404
148,1.0,0.0008025094866752625,0.0008025094866752625,0.001,0.35333332419395447,1.4627294540405273,1.4627294540405273
149,1.0,0.0007897563627921045,0.0007897563627921045,0.001,0.35333332419395447,1.4633939266204834,1.4633939266204834
150,1.0,0.0007774033583700657,0.0007774033583700657,0.001,0.35333332419395447,1.4640673398971558,1.4640673398971558
151,1.0,0.000765770731959492,0.000765770731959492,0.001,0.35333332419395447,1.4647098779678345,1.4647098779678345
152,1.0,0.0007541712839156389,0.0007541712839156389,0.001,0.35333332419395447,1.465442419052124,1.465442419052124
153,1.0,0.0007430863915942609,0.0007430863915942609,0.001,0.35333332419395447,1.4661262035369873,1.4661262035369873
154,1.0,0.0007324852631427348,0.0007324852631427348,0.001,0.35333332419395447,1.4667938947677612,1.4667938947677612
155,1.0,0.0007214550278149545,0.0007214550278149545,0.0005,0.3531111180782318,1.4671717882156372,1.4671717882156372
156,1.0,0.0007163071422837675,0.0007163071422837675,0.0005,0.3508888781070709,1.4676477909088135,1.4676477909088135
157,1.0,0.0007111512823030353,0.0007111512823030353,0.0005,0.3468888998031616,1.4681259393692017,1.4681259393692017
158,1.0,0.0007061519427224994,0.0007061519427224994,0.0005,0.34155556559562683,1.46856689453125,1.46856689453125
159,1.0,0.0007013430004008114,0.0007013430004008114,0.0005,0.3346666693687439,1.4689732789993286,1.4689732789993286
160,1.0,0.0006966209621168673,0.0006966209621168673,0.0005,0.3271111249923706,1.469394326210022,1.469394326210022
161,1.0,0.0006920959567651153,0.0006920959567651153,0.0005,0.31977778673171997,1.469926118850708,1.469926118850708
162,1.0,0.0006872331141494215,0.0006872331141494215,0.0005,0.3122222125530243,1.4703913927078247,1.4703913927078247
163,1.0,0.0006827124743722379,0.0006827124743722379,0.0005,0.304666668176651,1.4708147048950195,1.4708147048950195
164,1.0,0.0006783225107938051,0.0006783225107938051,0.0005,0.29555556178092957,1.4711960554122925,1.4711960554122925
165,1.0,0.0006738101365044713,0.0006738101365044713,0.0005,0.28200000524520874,1.4716445207595825,1.4716445207595825
166,1.0,0.0006695290794596076,0.0006695290794596076,0.0005,0.26955556869506836,1.4721447229385376,1.4721447229385376
167,1.0,0.000665166589897126,0.000665166589897126,0.0005,0.2526666522026062,1.4725613594055176,1.4725613594055176
168,1.0,0.0006608766270801425,0.0006608766270801425,0.0005,0.24088889360427856,1.4730033874511719,1.4730033874511719
169,1.0,0.0006566394004039466,0.0006566394004039466,0.0005,0.2240000069141388,1.4735246896743774,1.4735246896743774
170,1.0,0.0006524111377075315,0.0006524111377075315,0.0005,0.20888888835906982,1.473975419998169,1.473975419998169
171,1.0,0.0006484992918558419,0.0006484992918558419,0.0005,0.1948888897895813,1.4745287895202637,1.4745287895202637
172,1.0,0.0006443783058784902,0.0006443783058784902,0.0005,0.17822222411632538,1.4750503301620483,1.4750503301620483
173,1.0,0.000640704995021224,0.000640704995021224,0.0005,0.1666666716337204,1.4756464958190918,1.4756464958190918
174,1.0,0.000636810902506113,0.000636810902506113,0.0005,0.15422222018241882,1.4762042760849,1.4762042760849
175,1.0,0.0006329694879241288,0.0006329694879241288,0.0005,0.14711111783981323,1.476761817932129,1.476761817932129
176,1.0,0.0006292542675510049,0.0006292542675510049,0.0005,0.13777777552604675,1.4773199558258057,1.4773199558258057
177,1.0,0.0006251799059100449,0.0006251799059100449,0.0005,0.13288888335227966,1.4777404069900513,1.4777404069900513
178,1.0,0.0006212639273144305,0.0006212639273144305,0.0005,0.12688888609409332,1.4782450199127197,1.4782450199127197
179,1.0,0.0006176598253659904,0.0006176598253659904,0.0005,0.12200000137090683,1.4786980152130127,1.4786980152130127
180,1.0,0.0006140095647424459,0.0006140095647424459,0.0005,0.11688888818025589,1.479166030883789,1.479166030883789
181,1.0,0.0006103696650825441,0.0006103696650825441,0.0005,0.1142222210764885,1.4795814752578735,1.4795814752578735
182,1.0,0.0006069049704819918,0.0006069049704819918,0.0005,0.11088889092206955,1.479972004890442,1.479972004890442
183,1.0,0.0006033195531927049,0.0006033195531927049,0.0005,0.10822222381830215,1.4803693294525146,1.4803693294525146
184,1.0,0.0005996575928293169,0.0005996575928293169,0.0005,0.1066666692495346,1.4806115627288818,1.4806115627288818
185,1.0,0.0005963033763691783,0.0005963033763691783,0.0005,0.10555555671453476,1.4809701442718506,1.4809701442718506
186,1.0,0.0005929055041633546,0.0005929055041633546,0.0005,0.10377778112888336,1.4812161922454834,1.4812161922454834
187,1.0,0.0005893231136724353,0.0005893231136724353,0.0005,0.10244444757699966,1.481513261795044,1.481513261795044
188,1.0,0.0005859984084963799,0.0005859984084963799,0.0005,0.10155555605888367,1.481746792793274,1.481746792793274
189,1.0,0.0005826375563628972,0.0005826375563628972,0.0005,0.10111111402511597,1.4820719957351685,1.4820719957351685
190,1.0,0.0005792039446532726,0.0005792039446532726,0.0005,0.10088888555765152,1.4823365211486816,1.4823365211486816
191,1.0,0.0005760410567745566,0.0005760410567745566,0.0005,0.10044444352388382,1.4825835227966309,1.4825835227966309
192,1.0,0.0005726312519982457,0.0005726312519982457,0.0005,0.09977778047323227,1.4827834367752075,1.4827834367752075
193,1.0,0.0005695695290341973,0.0005695695290341973,0.0005,0.09977778047323227,1.4828588962554932,1.4828588962554932
194,1.0,0.000566407514270395,0.000566407514270395,0.0005,0.09977778047323227,1.4830400943756104,1.4830400943756104
195,1.0,0.0005632214597426355,0.0005632214597426355,0.0005,0.09977778047323227,1.48321533203125,1.48321533203125
196,1.0,0.0005599464639090002,0.0005599464639090002,0.0005,0.10044444352388382,1.4833805561065674,1.4833805561065674
197,1.0,0.0005569190252572298,0.0005569190252572298,0.0005,0.10111111402511597,1.483499526977539,1.483499526977539
198,1.0,0.0005538329132832587,0.0005538329132832587,0.0005,0.10155555605888367,1.483627438545227,1.483627438545227
199,1.0,0.0005507130990736187,0.0005507130990736187,0.0005,0.10199999809265137,1.4836201667785645,1.4836201667785645
200,1.0,0.0005475931102409959,0.0005475931102409959,0.0005,0.10266666859388351,1.4837018251419067,1.4837018251419067
201,1.0,0.000544651469681412,0.000544651469681412,0.0005,0.10422222316265106,1.4836267232894897,1.4836267232894897
202,1.0,0.0005416226922534406,0.0005416226922534406,0.0005,0.10488888621330261,1.483595848083496,1.483595848083496
203,1.0,0.0005385976983234286,0.0005385976983234286,0.0005,0.10466666519641876,1.4837373495101929,1.4837373495101929
204,1.0,0.0005357438349165022,0.0005357438349165022,0.0005,0.10555555671453476,1.4837331771850586,1.4837331771850586
205,1.0,0.0005328610423021019,0.0005328610423021019,0.00025,0.10688889026641846,1.48360276222229,1.48360276222229
206,1.0,0.000531513593159616,0.000531513593159616,0.00025,0.1088888868689537,1.4834855794906616,1.4834855794906616
207,1.0,0.0005299364565871656,0.0005299364565871656,0.00025,0.1102222204208374,1.48332679271698,1.48332679271698
208,1.0,0.0005285533261485398,0.0005285533261485398,0.00025,0.1115555539727211,1.4831194877624512,1.4831194877624512
209,1.0,0.0005271088448353112,0.0005271088448353112,0.00025,0.11266666650772095,1.4829891920089722,1.4829891920089722
210,1.0,0.0005257094162516296,0.0005257094162516296,0.00025,0.11555555462837219,1.4827165603637695,1.4827165603637695
211,1.0,0.0005242237239144742,0.0005242237239144742,0.00025,0.11888889223337173,1.4823813438415527,1.4823813438415527
212,1.0,0.0005228031659498811,0.0005228031659498811,0.00025,0.12155555188655853,1.4821865558624268,1.4821865558624268
213,1.0,0.0005214354605413973,0.0005214354605413973,0.00025,0.12444444745779037,1.4818885326385498,1.4818885326385498
214,1.0,0.0005199770675972104,0.0005199770675972104,0.00025,0.12822222709655762,1.4816962480545044,1.4816962480545044
215,1.0,0.0005186018534004688,0.0005186018534004688,0.00025,0.12999999523162842,1.4814423322677612,1.4814423322677612
216,1.0,0.0005173006793484092,0.0005173006793484092,0.00025,0.13244444131851196,1.4812403917312622,1.4812403917312622
217,1.0,0.0005159946740604937,0.0005159946740604937,0.00025,0.13644444942474365,1.4809004068374634,1.4809004068374634
218,1.0,0.0005145902396179736,0.0005145902396179736,0.00025,0.14133332669734955,1.480508804321289,1.480508804321289
219,1.0,0.0005131292855367064,0.0005131292855367064,0.00025,0.1433333307504654,1.4802143573760986,1.4802143573760986
220,1.0,0.0005118938279338181,0.0005118938279338181,0.00025,0.14777778089046478,1.4799426794052124,1.4799426794052124
221,1.0,0.0005104156443849206,0.0005104156443849206,0.00025,0.15177777409553528,1.4796315431594849,1.4796315431594849
222,1.0,0.0005091471830382943,0.0005091471830382943,0.00025,0.15711110830307007,1.4794062376022339,1.4794062376022339
223,1.0,0.0005077699315734208,0.0005077699315734208,0.00025,0.1613333374261856,1.4790842533111572,1.4790842533111572
224,1.0,0.0005064590950496495,0.0005064590950496495,0.00025,0.1648888885974884,1.4786975383758545,1.4786975383758545
225,1.0,0.0005049711908213794,0.0005049711908213794,0.00025,0.1688888818025589,1.478334903717041,1.478334903717041
226,1.0,0.0005037036607973278,0.0005037036607973278,0.00025,0.17266666889190674,1.4780759811401367,1.4780759811401367
227,1.0,0.0005023822886869311,0.0005023822886869311,0.00025,0.17466667294502258,1.4778345823287964,1.4778345823287964
228,1.0,0.0005010115564800799,0.0005010115564800799,0.00025,0.17933332920074463,1.4775288105010986,1.4775288105010986
229,1.0,0.0004996955976821482,0.0004996955976821482,0.00025,0.18444444239139557,1.4771682024002075,1.4771682024002075
230,1.0,0.000498317473102361,0.000498317473102361,0.00025,0.1886666715145111,1.4769319295883179,1.4769319295883179
231,1.0,0.0004969248548150063,0.0004969248548150063,0.00025,0.1926666647195816,1.476664662361145,1.476664662361145
232,1.0,0.0004956469056196511,0.0004956469056196511,0.00025,0.1979999989271164,1.4763908386230469,1.4763908386230469
233,1.0,0.0004942402010783553,0.0004942402010783553,0.00025,0.20266667008399963,1.4761747121810913,1.4761747121810913
234,1.0,0.0004930008435621858,0.0004930008435621858,0.00025,0.20533333718776703,1.4759056568145752,1.4759056568145752
235,1.0,0.0004917005426250398,0.0004917005426250398,0.00025,0.20822222530841827,1.4756776094436646,1.4756776094436646
236,1.0,0.0004904246889054775,0.0004904246889054775,0.00025,0.21222221851348877,1.4753707647323608,1.4753707647323608
237,1.0,0.000489078345708549,0.000489078345708549,0.00025,0.21622222661972046,1.4750720262527466,1.4750720262527466
238,1.0,0.0004878501931671053,0.0004878501931671053,0.00025,0.2191111147403717,1.4747788906097412,1.4747788906097412
239,1.0,0.00048660088214091957,0.00048660088214091957,0.00025,0.2222222238779068,1.4745206832885742,1.4745206832885742
240,1.0,0.0004852889687754214,0.0004852889687754214,0.00025,0.2257777750492096,1.4743318557739258,1.4743318557739258
241,1.0,0.00048412184696644545,0.00048412184696644545,0.00025,0.2280000001192093,1.4741300344467163,1.4741300344467163
242,1.0,0.0004829469253309071,0.0004829469253309071,0.00025,0.23066666722297668,1.4739179611206055,1.4739179611206055
243,1.0,0.00048158044228330255,0.00048158044228330255,0.00025,0.23311111330986023,1.4737175703048706,1.4737175703048706
244,1.0,0.00048032583435997367,0.00048032583435997367,0.00025,0.23600000143051147,1.4734150171279907,1.4734150171279907
245,1.0,0.0004790655802935362,0.0004790655802935362,0.00025,0.23866666853427887,1.4731636047363281,1.4731636047363281
246,1.0,0.0004777482827194035,0.0004777482827194035,0.00025,0.24088889360427856,1.472969651222229,1.472969651222229
247,1.0,0.00047660942072980106,0.00047660942072980106,0.00025,0.24355556070804596,1.4728848934173584,1.4728848934173584
248,1.0,0.0004753567627631128,0.0004753567627631128,0.00025,0.24533332884311676,1.4727520942687988,1.4727520942687988
249,1.0,0.0004741871962323785,0.0004741871962323785,0.00025,0.24755555391311646,1.472659707069397,1.472659707069397
250,1.0,0.0004728770873043686,0.0004728770873043686,0.00025,0.2513333261013031,1.4724990129470825,1.4724990129470825
251,1.0,0.0004716399125754833,0.0004716399125754833,0.00025,0.2540000081062317,1.472350001335144,1.472350001335144
252,1.0,0.00047037351760081947,0.00047037351760081947,0.00025,0.257999986410141,1.4722663164138794,1.4722663164138794
253,1.0,0.00046922964975237846,0.00046922964975237846,0.00025,0.26088887453079224,1.4720972776412964,1.4720972776412964
254,1.0,0.00046790140913799405,0.00046790140913799405,0.00025,0.2628888785839081,1.4720484018325806,1.4720484018325806
255,1.0,0.000466500932816416,0.000466500932816416,0.000125,0.2657777667045593,1.4720861911773682,1.4720861911773682
256,1.0,0.0004658378893509507,0.0004658378893509507,0.000125,0.2680000066757202,1.4720497131347656,1.4720497131347656
257,1.0,0.00046523395576514304,0.00046523395576514304,0.000125,0.2702222168445587,1.4720888137817383,1.4720888137817383
258,1.0,0.0004646652960218489,0.0004646652960218489,0.000125,0.273333340883255,1.4721308946609497,1.4721308946609497
259,1.0,0.0004640794650185853,0.0004640794650185853,0.000125,0.2746666669845581,1.4721614122390747,1.4721614122390747
260,1.0,0.0004634589422494173,0.0004634589422494173,0.000125,0.27799999713897705,1.4721927642822266,1.4721927642822266
261,1.0,0.000462885363958776,0.000462885363958776,0.000125,0.2791111171245575,1.4722903966903687,1.4722903966903687
262,1.0,0.0004623068671207875,0.0004623068671207875,0.000125,0.28288888931274414,1.4723273515701294,1.4723273515701294
263,1.0,0.0004617669910658151,0.0004617669910658151,0.000125,0.28555554151535034,1.472407579421997,1.472407579421997
264,1.0,0.00046118887257762253,0.00046118887257762253,0.000125,0.28777778148651123,1.4725465774536133,1.4725465774536133
265,1.0,0.0004605496651493013,0.0004605496651493013,0.000125,0.28955554962158203,1.4727259874343872,1.4727259874343872
266,1.0,0.0004598607774823904,0.0004598607774823904,0.000125,0.2913333475589752,1.4728811979293823,1.4728811979293823
267,1.0,0.00045936505193822086,0.00045936505193822086,0.000125,0.2919999957084656,1.4730384349822998,1.4730384349822998
268,1.0,0.00045875011710450053,0.00045875011710450053,0.000125,0.2939999997615814,1.4732792377471924,1.4732792377471924
269,1.0,0.0004581247048918158,0.0004581247048918158,0.000125,0.29511111974716187,1.473473310470581,1.473473310470581
270,1.0,0.00045752295409329236,0.00045752295409329236,0.000125,0.29777777194976807,1.473769187927246,1.473769187927246
271,1.0,0.0004569412849377841,0.0004569412849377841,0.000125,0.29866665601730347,1.4740442037582397,1.4740442037582397
272,1.0,0.00045626197243109345,0.00045626197243109345,0.000125,0.3015555441379547,1.474241852760315,1.474241852760315
273,1.0,0.0004556418862193823,0.0004556418862193823,0.000125,0.30355554819107056,1.4745056629180908,1.4745056629180908
274,1.0,0.00045503248111344874,0.00045503248111344874,0.000125,0.30533334612846375,1.4748096466064453,1.4748096466064453
275,1.0,0.0004544183611869812,0.0004544183611869812,0.000125,0.3064444363117218,1.4751534461975098,1.4751534461975098
276,1.0,0.00045381480595096946,0.00045381480595096946,0.000125,0.30844444036483765,1.4755072593688965,1.4755072593688965
277,1.0,0.00045322178630158305,0.00045322178630158305,0.000125,0.31111112236976624,1.4759347438812256,1.4759347438812256
278,1.0,0.00045263353968039155,0.00045263353968039155,0.000125,0.3122222125530243,1.4761738777160645,1.4761738777160645
279,1.0,0.0004519727954175323,0.0004519727954175323,0.000125,0.31511110067367554,1.4765195846557617,1.4765195846557617
280,1.0,0.00045140687143430114,0.00045140687143430114,0.000125,0.316444456577301,1.4769099950790405,1.4769099950790405
281,1.0,0.00045077328104525805,0.00045077328104525805,0.000125,0.3182222247123718,1.4772926568984985,1.4772926568984985
282,1.0,0.00045022921403869987,0.00045022921403869987,0.000125,0.31888890266418457,1.4777191877365112,1.4777191877365112
283,1.0,0.00044962542597204447,0.00044962542597204447,0.000125,0.32066667079925537,1.4781240224838257,1.4781240224838257
284,1.0,0.0004489754210226238,0.0004489754210226238,0.000125,0.32199999690055847,1.4784752130508423,1.4784752130508423
285,1.0,0.000448433420388028,0.000448433420388028,0.000125,0.3226666748523712,1.4787695407867432,1.4787695407867432
286,1.0,0.00044789566891267896,0.00044789566891267896,0.000125,0.3235555589199066,1.479040503501892,1.479040503501892
287,1.0,0.00044729726505465806,0.00044729726505465806,0.000125,0.3253333270549774,1.4792081117630005,1.4792081117630005
288,1.0,0.0004466624232009053,0.0004466624232009053,0.000125,0.3284444510936737,1.47946035861969,1.47946035861969
289,1.0,0.00044605444418266416,0.00044605444418266416,0.000125,0.3288888931274414,1.4796284437179565,1.4796284437179565
290,1.0,0.0004454936133697629,0.0004454936133697629,0.000125,0.33000001311302185,1.4798774719238281,1.4798774719238281
291,1.0,0.0004449235857464373,0.0004449235857464373,0.000125,0.3319999873638153,1.4799680709838867,1.4799680709838867
292,1.0,0.0004443000943865627,0.0004443000943865627,0.000125,0.33399999141693115,1.4801008701324463,1.4801008701324463
293,1.0,0.0004437167081050575,0.0004437167081050575,0.000125,0.3351111114025116,1.4800167083740234,1.4800167083740234
294,1.0,0.0004430772387422621,0.0004430772387422621,0.000125,0.33622223138809204,1.4801769256591797,1.4801769256591797
295,1.0,0.0004425049410201609,0.0004425049410201609,0.000125,0.3368888795375824,1.480094075202942,1.480094075202942
296,1.0,0.0004419323231559247,0.0004419323231559247,0.000125,0.3386666774749756,1.4798953533172607,1.4798953533172607
297,1.0,0.0004413663118612021,0.0004413663118612021,0.000125,0.33933332562446594,1.4796738624572754,1.4796738624572754
298,1.0,0.00044079014332965016,0.00044079014332965016,0.000125,0.34111112356185913,1.4793955087661743,1.4793955087661743
299,1.0,0.00044013818842358887,0.00044013818842358887,0.000125,0.34244444966316223,1.4792234897613525,1.4792234897613525
300,1.0,0.00043957450543530285,0.00043957450543530285,0.000125,0.3440000116825104,1.4788832664489746,1.4788832664489746
301,1.0,0.0004389482783153653,0.0004389482783153653,0.000125,0.34466665983200073,1.4782756567001343,1.4782756567001343
302,1.0,0.0004384139319881797,0.0004384139319881797,0.000125,0.3448888957500458,1.4778367280960083,1.4778367280960083
303,1.0,0.00043776974780485034,0.00043776974780485034,0.000125,0.34599998593330383,1.4772228002548218,1.4772228002548218
304,1.0,0.00043723778799176216,0.00043723778799176216,0.000125,0.3471111059188843,1.4764631986618042,1.4764633178710938
305,1.0,0.0004366744833532721,0.0004366744833532721,1e-04,0.3479999899864197,1.475411057472229,1.475411057472229
306,1.0,0.00043619051575660706,0.00043619051575660706,1e-04,0.3482222259044647,1.474353313446045,1.474353313446045
307,1.0,0.00043573477887548506,0.00043573477887548506,1e-04,0.3484444320201874,1.473036766052246,1.473036766052246
308,1.0,0.0004351299721747637,0.0004351299721747637,1e-04,0.3486666679382324,1.4717479944229126,1.4717479944229126
309,1.0,0.0004347252252046019,0.0004347252252046019,1e-04,0.3491111099720001,1.4702249765396118,1.4702249765396118
310,1.0,0.00043425901094451547,0.00043425901094451547,1e-04,0.3491111099720001,1.468656301498413,1.468656301498413
311,1.0,0.0004337648570071906,0.0004337648570071906,1e-04,0.3495555520057678,1.4668437242507935,1.4668437242507935
312,1.0,0.00043334157089702785,0.00043334157089702785,1e-04,0.3504444360733032,1.4650439023971558,1.4650439023971558
313,1.0,0.0004329052462708205,0.0004329052462708205,1e-04,0.3504444360733032,1.4632067680358887,1.4632067680358887
314,1.0,0.00043239063234068453,0.00043239063234068453,1e-04,0.3508888781070709,1.4610167741775513,1.4610167741775513
315,1.0,0.0004319201107136905,0.0004319201107136905,1e-04,0.3508888781070709,1.458888292312622,1.458888292312622
316,1.0,0.0004313662648200989,0.0004313662648200989,1e-04,0.3513333201408386,1.456567645072937,1.456567645072937
317,1.0,0.0004309506912250072,0.0004309506912250072,1e-04,0.3513333201408386,1.4540477991104126,1.4540477991104126
318,1.0,0.00043052321416325867,0.00043052321416325867,1e-04,0.3513333201408386,1.4516794681549072,1.4516794681549072
319,1.0,0.000430043728556484,0.000430043728556484,1e-04,0.35155555605888367,1.449058175086975,1.449058175086975
320,1.0,0.00042955816024914384,0.00042955816024914384,1e-04,0.3517777919769287,1.4460577964782715,1.4460577964782715
321,1.0,0.00042910390766337514,0.00042910390766337514,1e-04,0.35199999809265137,1.4432828426361084,1.4432828426361084
322,1.0,0.0004286589683033526,0.0004286589683033526,1e-04,0.3531111180782318,1.4401103258132935,1.4401103258132935
323,1.0,0.00042814415064640343,0.00042814415064640343,1e-04,0.3531111180782318,1.4367413520812988,1.4367413520812988
324,1.0,0.00042769909487105906,0.00042769909487105906,1e-04,0.3531111180782318,1.4333148002624512,1.4333148002624512
325,1.0,0.0004273090453352779,0.0004273090453352779,1e-04,0.3535555601119995,1.429512858390808,1.429512858390808
326,1.0,0.0004268379125278443,0.0004268379125278443,1e-04,0.35422220826148987,1.4256887435913086,1.4256887435913086
327,1.0,0.00042636648868210614,0.00042636648868210614,1e-04,0.3548888862133026,1.4214012622833252,1.4214012622833252
328,1.0,0.00042583965114317834,0.00042583965114317834,1e-04,0.3553333282470703,1.4172844886779785,1.4172844886779785
329,1.0,0.0004253084189258516,0.0004253084189258516,1e-04,0.3566666543483734,1.412890076637268,1.412890076637268
330,1.0,0.0004247933975420892,0.0004247933975420892,1e-04,0.3571110963821411,1.4084538221359253,1.4084538221359253
331,1.0,0.0004243675502948463,0.0004243675502948463,1e-04,0.35733333230018616,1.4037742614746094,1.4037742614746094
332,1.0,0.0004240006674081087,0.0004240006674081087,1e-04,0.35866665840148926,1.3989578485488892,1.3989578485488892
333,1.0,0.0004233962972648442,0.0004233962972648442,1e-04,0.359333336353302,1.3940412998199463,1.3940412998199463
334,1.0,0.0004229329351801425,0.0004229329351801425,1e-04,0.3602222204208374,1.3887296915054321,1.3887296915054321
335,1.0,0.00042252420098520815,0.00042252420098520815,1e-04,0.3619999885559082,1.3835474252700806,1.3835474252700806
336,1.0,0.0004220166301820427,0.0004220166301820427,1e-04,0.362888902425766,1.3783462047576904,1.3783462047576904
337,1.0,0.00042161790770478547,0.00042161790770478547,1e-04,0.36355555057525635,1.372955322265625,1.372955322265625
338,1.0,0.0004211059713270515,0.0004211059713270515,1e-04,0.3642222285270691,1.3673980236053467,1.3673980236053467
339,1.0,0.0004206239536870271,0.0004206239536870271,1e-04,0.36444443464279175,1.3614096641540527,1.3614096641540527
340,1.0,0.0004201932461000979,0.0004201932461000979,1e-04,0.3655555546283722,1.3557217121124268,1.3557217121124268
341,1.0,0.0004196333757136017,0.0004196333757136017,1e-04,0.3659999966621399,1.3493916988372803,1.3493916988372803
342,1.0,0.0004191944026388228,0.0004191944026388228,1e-04,0.36800000071525574,1.3431833982467651,1.3431833982467651
343,1.0,0.00041875545866787434,0.00041875545866787434,1e-04,0.3700000047683716,1.3369258642196655,1.3369258642196655
344,1.0,0.00041834497824311256,0.00041834497824311256,1e-04,0.3715555667877197,1.3302639722824097,1.3302639722824097
345,1.0,0.0004178196541033685,0.0004178196541033685,1e-04,0.3731110990047455,1.3236697912216187,1.3236697912216187
346,1.0,0.00041746156057342887,0.00041746156057342887,1e-04,0.37533333897590637,1.3168498277664185,1.3168498277664185
347,1.0,0.00041699392022565007,0.00041699392022565007,1e-04,0.3775555491447449,1.3097126483917236,1.3097126483917236
348,1.0,0.0004164944984950125,0.0004164944984950125,1e-04,0.38022223114967346,1.3027383089065552,1.3027383089065552
349,1.0,0.00041597074596211314,0.00041597074596211314,1e-04,0.3817777633666992,1.2956583499908447,1.2956583499908447
350,1.0,0.0004154972266405821,0.0004154972266405821,1e-04,0.38511112332344055,1.2884329557418823,1.2884329557418823
351,1.0,0.0004150138993281871,0.0004150138993281871,1e-04,0.38777777552604675,1.2811243534088135,1.2811243534088135
352,1.0,0.0004145451821386814,0.0004145451821386814,1e-04,0.39088889956474304,1.2736170291900635,1.2736170291900635
353,1.0,0.00041409936966374516,0.00041409936966374516,1e-04,0.3937777876853943,1.2660319805145264,1.2660319805145264
354,1.0,0.00041367963422089815,0.00041367963422089815,1e-04,0.39755555987358093,1.2587475776672363,1.2587475776672363
355,1.0,0.0004132165340706706,0.0004132165340706706,1e-04,0.4011111259460449,1.2513140439987183,1.2513140439987183
356,1.0,0.00041275867260992527,0.00041275867260992527,1e-04,0.4055555462837219,1.2434098720550537,1.2434098720550537
357,1.0,0.00041231545037589967,0.00041231545037589967,1e-04,0.40799999237060547,1.2354708909988403,1.2354708909988403
358,1.0,0.00041183893335983157,0.00041183893335983157,1e-04,0.41066667437553406,1.2275716066360474,1.2275716066360474
359,1.0,0.000411366083426401,0.000411366083426401,1e-04,0.41466665267944336,1.219457745552063,1.219457745552063
360,1.0,0.00041095769847743213,0.00041095769847743213,1e-04,0.4166666567325592,1.2118277549743652,1.2118277549743652
361,1.0,0.00041054669418372214,0.00041054669418372214,1e-04,0.42133334279060364,1.2036948204040527,1.2036948204040527
362,1.0,0.00041001124191097915,0.00041001124191097915,1e-04,0.42444443702697754,1.195846676826477,1.195846676826477
363,1.0,0.0004095775366295129,0.0004095775366295129,1e-04,0.4268888831138611,1.1879013776779175,1.1879013776779175
364,1.0,0.0004091769515071064,0.0004091769515071064,1e-04,0.4308888912200928,1.17983078956604,1.17983078956604
365,1.0,0.0004086494736839086,0.0004086494736839086,1e-04,0.43488889932632446,1.1719610691070557,1.1719610691070557
366,1.0,0.00040820351568982005,0.00040820351568982005,1e-04,0.4404444396495819,1.1638092994689941,1.1638092994689941
367,1.0,0.00040777851245366037,0.00040777851245366037,1e-04,0.445333331823349,1.1553833484649658,1.1553833484649658
368,1.0,0.00040729611646384,0.00040729611646384,1e-04,0.44999998807907104,1.1474601030349731,1.1474601030349731
369,1.0,0.0004068640118930489,0.0004068640118930489,1e-04,0.45266667008399963,1.139329195022583,1.139329195022583
370,1.0,0.0004063216911163181,0.0004063216911163181,1e-04,0.45577776432037354,1.131242275238037,1.131242275238037
371,1.0,0.00040591394645161927,0.00040591394645161927,1e-04,0.4611110985279083,1.1230709552764893,1.1230709552764893
372,1.0,0.00040537098539061844,0.00040537098539061844,1e-04,0.46755555272102356,1.1148754358291626,1.1148754358291626
373,1.0,0.00040499609895050526,0.00040499609895050526,1e-04,0.4744444489479065,1.106597900390625,1.106597900390625
374,1.0,0.0004045701934956014,0.0004045701934956014,1e-04,0.48133334517478943,1.0987977981567383,1.0987977981567383
375,1.0,0.00040411221561953425,0.00040411221561953425,1e-04,0.4864444434642792,1.0904697179794312,1.0904697179794312
376,1.0,0.00040371017530560493,0.00040371017530560493,1e-04,0.4906666576862335,1.082245945930481,1.082245945930481
377,1.0,0.0004032377037219703,0.0004032377037219703,1e-04,0.4951111078262329,1.0746076107025146,1.0746076107025146
378,1.0,0.0004027730319648981,0.0004027730319648981,1e-04,0.5022222399711609,1.0661574602127075,1.0661574602127075
379,1.0,0.0004022494831588119,0.0004022494831588119,1e-04,0.5093333125114441,1.0583151578903198,1.0583151578903198
380,1.0,0.00040185096440836787,0.00040185096440836787,1e-04,0.5168889164924622,1.0502907037734985,1.0502907037734985
381,1.0,0.00040135797462426126,0.00040135797462426126,1e-04,0.5220000147819519,1.0426095724105835,1.0426095724105835
382,1.0,0.0004009671974927187,0.0004009671974927187,1e-04,0.5277777910232544,1.0349584817886353,1.0349584817886353
383,1.0,0.0004005671653430909,0.0004005671653430909,1e-04,0.535111129283905,1.0271250009536743,1.0271250009536743
384,1.0,0.0004000993212684989,0.0004000993212684989,1e-04,0.5386666655540466,1.019433617591858,1.019433617591858
385,1.0,0.00039968977216631174,0.00039968977216631174,1e-04,0.5457777976989746,1.0118921995162964,1.0118921995162964
386,1.0,0.0003992243728134781,0.0003992243728134781,1e-04,0.5513333082199097,1.0042872428894043,1.0042872428894043
387,1.0,0.0003987557429354638,0.0003987557429354638,1e-04,0.5577777624130249,0.9970369935035706,0.9970369935035706
388,1.0,0.0003983512578997761,0.0003983512578997761,1e-04,0.562666654586792,0.9897331595420837,0.9897331595420837
389,1.0,0.00039787316927686334,0.00039787316927686334,1e-04,0.5680000185966492,0.9824615716934204,0.9824615716934204
390,1.0,0.00039741655928082764,0.00039741655928082764,1e-04,0.5735555291175842,0.9752479195594788,0.9752479195594788
391,1.0,0.00039693331927992404,0.00039693331927992404,1e-04,0.5786666870117188,0.9679727554321289,0.9679727554321289
392,1.0,0.00039656099397689104,0.00039656099397689104,1e-04,0.5837777853012085,0.9609619975090027,0.9609619975090027
393,1.0,0.0003961532493121922,0.0003961532493121922,1e-04,0.590666651725769,0.9538801908493042,0.9538801908493042
394,1.0,0.0003957025473937392,0.0003957025473937392,1e-04,0.5973333120346069,0.9469425082206726,0.9469425082206726
395,1.0,0.0003952554543502629,0.0003952554543502629,1e-04,0.6046666502952576,0.9400901794433594,0.9400901794433594
396,1.0,0.00039481199928559363,0.00039481199928559363,1e-04,0.6097777485847473,0.9330930113792419,0.9330930113792419
397,1.0,0.00039434677455574274,0.00039434677455574274,1e-04,0.6155555844306946,0.9263163805007935,0.9263163805007935
398,1.0,0.0003938600420951843,0.0003938600420951843,1e-04,0.6206666827201843,0.9198141098022461,0.9198141098022461
399,1.0,0.0003933702246285975,0.0003933702246285975,1e-04,0.625333309173584,0.9136002659797668,0.9136002659797668
400,1.0,0.00039291419670917094,0.00039291419670917094,1e-04,0.6317777633666992,0.9071234464645386,0.9071234464645386
401,1.0,0.00039242516504600644,0.00039242516504600644,1e-04,0.637333333492279,0.9006863832473755,0.9006863832473755
402,1.0,0.00039200103492476046,0.00039200103492476046,1e-04,0.6448888778686523,0.8941600918769836,0.8941600918769836
403,1.0,0.0003915065317414701,0.0003915065317414701,1e-04,0.6497777700424194,0.8878037333488464,0.8878037333488464
404,1.0,0.0003910271043423563,0.0003910271043423563,1e-04,0.6542222499847412,0.8816809058189392,0.8816809058189392
405,1.0,0.0003906078345607966,0.0003906078345607966,1e-04,0.6595555543899536,0.8757470846176147,0.8757470846176147
406,1.0,0.0003901320742443204,0.0003901320742443204,1e-04,0.664222240447998,0.8697084188461304,0.8697084188461304
407,1.0,0.00038968760054558516,0.00038968760054558516,1e-04,0.6706666946411133,0.8635920286178589,0.8635920286178589
408,1.0,0.0003891979868058115,0.0003891979868058115,1e-04,0.6731111407279968,0.8580089807510376,0.8580089807510376
409,1.0,0.00038883209344930947,0.00038883209344930947,1e-04,0.6779999732971191,0.8521900773048401,0.8521900773048401
410,1.0,0.00038836480234749615,0.00038836480234749615,1e-04,0.6828888654708862,0.8463940620422363,0.8463940620422363
411,1.0,0.0003879641299135983,0.0003879641299135983,1e-04,0.6880000233650208,0.8407057523727417,0.8407057523727417
412,1.0,0.0003876195987686515,0.0003876195987686515,1e-04,0.6919999718666077,0.8349878787994385,0.8349878787994385
413,1.0,0.00038716598646715283,0.00038716598646715283,1e-04,0.6986666917800903,0.8294385671615601,0.8294385671615601
414,1.0,0.0003867281775455922,0.0003867281775455922,1e-04,0.7026666402816772,0.8239383101463318,0.8239383101463318
415,1.0,0.00038636368117295206,0.00038636368117295206,1e-04,0.7066666483879089,0.8188661932945251,0.8188661932945251
416,1.0,0.0003859200805891305,0.0003859200805891305,1e-04,0.7124444246292114,0.8130958676338196,0.8130958676338196
417,1.0,0.0003855175746139139,0.0003855175746139139,1e-04,0.7162222266197205,0.8078056573867798,0.8078056573867798
418,1.0,0.0003850788634736091,0.0003850788634736091,1e-04,0.7200000286102295,0.8022327423095703,0.8022327423095703
419,1.0,0.00038469358696602285,0.00038469358696602285,1e-04,0.7255555391311646,0.7965900301933289,0.7965900301933289
420,1.0,0.00038419003249146044,0.00038419003249146044,1e-04,0.730222225189209,0.7912058234214783,0.7912058234214783
421,1.0,0.00038375784060917795,0.00038375784060917795,1e-04,0.7355555295944214,0.7856280207633972,0.7856280207633972
422,1.0,0.00038331974064931273,0.00038331974064931273,1e-04,0.7391111254692078,0.7803488969802856,0.7803488969802856
423,1.0,0.00038291397504508495,0.00038291397504508495,1e-04,0.7440000176429749,0.7749580144882202,0.7749580144882202
424,1.0,0.0003825339372269809,0.0003825339372269809,1e-04,0.7502222061157227,0.7698806524276733,0.7698806524276733
425,1.0,0.0003821101854555309,0.0003821101854555309,1e-04,0.7528889179229736,0.7645025849342346,0.7645025849342346
426,1.0,0.0003816753451246768,0.0003816753451246768,1e-04,0.757777750492096,0.7594627737998962,0.7594627737998962
427,1.0,0.0003812280192505568,0.0003812280192505568,1e-04,0.7617777585983276,0.7544017434120178,0.7544017434120178
428,1.0,0.0003807712928391993,0.0003807712928391993,1e-04,0.7648888826370239,0.7492812871932983,0.7492812871932983
429,1.0,0.0003802834253292531,0.0003802834253292531,1e-04,0.7677778005599976,0.7443086504936218,0.7443086504936218
430,1.0,0.0003797674144152552,0.0003797674144152552,1e-04,0.7737777829170227,0.7394168972969055,0.7394168972969055
431,1.0,0.00037931770202703774,0.00037931770202703774,1e-04,0.7775555849075317,0.7342323064804077,0.7342323064804077
432,1.0,0.0003788944741245359,0.0003788944741245359,1e-04,0.7808889150619507,0.7292964458465576,0.7292964458465576
433,1.0,0.0003783814609050751,0.0003783814609050751,1e-04,0.7862222194671631,0.7241377234458923,0.7241377234458923
434,1.0,0.00037795817479491234,0.00037795817479491234,1e-04,0.7891111373901367,0.7191523909568787,0.7191523909568787
435,1.0,0.00037747493479400873,0.00037747493479400873,1e-04,0.7919999957084656,0.7140345573425293,0.7140345573425293
436,1.0,0.00037709236494265497,0.00037709236494265497,1e-04,0.7953333258628845,0.7090058326721191,0.7090058326721191
437,1.0,0.00037664975388906896,0.00037664975388906896,1e-04,0.7975555658340454,0.7043552398681641,0.7043552398681641
438,1.0,0.0003762613341677934,0.0003762613341677934,1e-04,0.7993333339691162,0.6998046636581421,0.6998046636581421
439,1.0,0.00037579075433313847,0.00037579075433313847,1e-04,0.8008888959884644,0.695138156414032,0.695138156414032
440,1.0,0.0003754263452719897,0.0003754263452719897,1e-04,0.8042222261428833,0.6903558969497681,0.6903558969497681
441,1.0,0.0003749393217731267,0.0003749393217731267,1e-04,0.8084444403648376,0.6856125593185425,0.6856125593185425
442,1.0,0.0003745417343452573,0.0003745417343452573,1e-04,0.8115555644035339,0.6808891296386719,0.6808891296386719
443,1.0,0.0003740460961125791,0.0003740460961125791,1e-04,0.8142222166061401,0.6759461164474487,0.6759461164474487
444,1.0,0.0003736671933438629,0.0003736671933438629,1e-04,0.8157777786254883,0.6715015769004822,0.6715015769004822
445,1.0,0.00037329684710130095,0.00037329684710130095,1e-04,0.8177777528762817,0.6670470237731934,0.6670470237731934
446,1.0,0.0003728800220414996,0.0003728800220414996,1e-04,0.8213333487510681,0.662478506565094,0.662478506565094
447,1.0,0.0003724553098436445,0.0003724553098436445,1e-04,0.824222207069397,0.6581820845603943,0.6581820845603943
448,1.0,0.0003719966916833073,0.0003719966916833073,1e-04,0.8264444470405579,0.653866171836853,0.653866171836853
449,1.0,0.00037150958087295294,0.00037150958087295294,1e-04,0.8291110992431641,0.6494506001472473,0.6494506001472473
450,1.0,0.00037108390824869275,0.00037108390824869275,1e-04,0.831333339214325,0.6450176239013672,0.6450176239013672
451,1.0,0.0003706703137140721,0.0003706703137140721,1e-04,0.8344444632530212,0.6409942507743835,0.6409942507743835
452,1.0,0.000370234512956813,0.000370234512956813,1e-04,0.836222231388092,0.6369754672050476,0.6369754672050476
453,1.0,0.0003698167856782675,0.0003698167856782675,1e-04,0.8388888835906982,0.6327136754989624,0.6327136754989624
454,1.0,0.0003694157348945737,0.0003694157348945737,1e-04,0.8422222137451172,0.6283669471740723,0.6283669471740723
455,1.0,0.00036902230931445956,0.00036902230931445956,1e-04,0.8442222476005554,0.623927652835846,0.623927652835846
456,1.0,0.0003686718409880996,0.0003686718409880996,1e-04,0.8460000157356262,0.6199489235877991,0.6199489235877991
457,1.0,0.000368190259905532,0.000368190259905532,1e-04,0.8471111059188843,0.6158856749534607,0.6158856749534607
458,1.0,0.0003677636559586972,0.0003677636559586972,1e-04,0.8493333458900452,0.6117244958877563,0.6117244958877563
459,1.0,0.0003673589089885354,0.0003673589089885354,1e-04,0.8515555262565613,0.6079605221748352,0.6079605221748352
460,1.0,0.0003669243596959859,0.0003669243596959859,1e-04,0.8535555601119995,0.6039794087409973,0.6039794087409973
461,1.0,0.000366504886187613,0.000366504886187613,1e-04,0.8544444441795349,0.5998967289924622,0.5998967289924622
462,1.0,0.00036602962063625455,0.00036602962063625455,1e-04,0.8562222123146057,0.5960116982460022,0.5960116982460022
463,1.0,0.0003656813642010093,0.0003656813642010093,1e-04,0.859333336353302,0.5918766260147095,0.5918766260147095
464,1.0,0.0003651899460237473,0.0003651899460237473,1e-04,0.8613333106040955,0.587961733341217,0.587961733341217
465,1.0,0.0003648393612820655,0.0003648393612820655,1e-04,0.8628888726234436,0.5840826630592346,0.5840826630592346
466,1.0,0.0003644126409199089,0.0003644126409199089,1e-04,0.8653333187103271,0.5804595351219177,0.5804595351219177
467,1.0,0.0003639710776042193,0.0003639710776042193,1e-04,0.8677777647972107,0.5769029855728149,0.5769029855728149
468,1.0,0.00036360573722049594,0.00036360573722049594,1e-04,0.8691111207008362,0.5730562806129456,0.5730562806129456
469,1.0,0.00036322869709692895,0.00036322869709692895,1e-04,0.8704444169998169,0.569262683391571,0.569262683391571
470,1.0,0.0003628420818131417,0.0003628420818131417,1e-04,0.871999979019165,0.5653477907180786,0.5653477907180786
471,1.0,0.00036231824196875095,0.00036231824196875095,1e-04,0.874666690826416,0.5617707371711731,0.5617707371711731
472,1.0,0.00036187926889397204,0.00036187926889397204,1e-04,0.8757777810096741,0.5584192872047424,0.5584192872047424
473,1.0,0.0003614555753301829,0.0003614555753301829,1e-04,0.8768888711929321,0.5549823045730591,0.5549823045730591
474,1.0,0.0003610032144933939,0.0003610032144933939,1e-04,0.8784444332122803,0.5515971779823303,0.5515971779823303
475,1.0,0.00036061336868442595,0.00036061336868442595,1e-04,0.8804444670677185,0.5481938719749451,0.5481938719749451
476,1.0,0.0003601483185775578,0.0003601483185775578,1e-04,0.8822222352027893,0.5446091294288635,0.5446091294288635
477,1.0,0.00035976775689050555,0.00035976775689050555,1e-04,0.8826666474342346,0.5409140586853027,0.5409140586853027
478,1.0,0.0003593356814235449,0.0003593356814235449,1e-04,0.8833333253860474,0.5377751588821411,0.5377751588821411
479,1.0,0.0003588808758649975,0.0003588808758649975,1e-04,0.8844444155693054,0.5346872806549072,0.5346872806549072
480,1.0,0.00035852761357091367,0.00035852761357091367,1e-04,0.8864444494247437,0.5313953757286072,0.5313953757286072
481,1.0,0.0003581040655262768,0.0003581040655262768,1e-04,0.887333333492279,0.5284379720687866,0.5284379720687866
482,1.0,0.00035770342219620943,0.00035770342219620943,1e-04,0.8895555734634399,0.5253556966781616,0.5253556966781616
483,1.0,0.0003572738787624985,0.0003572738787624985,1e-04,0.8904444575309753,0.5222561955451965,0.5222561955451965
484,1.0,0.0003568490210454911,0.0003568490210454911,1e-04,0.890666663646698,0.519360363483429,0.519360363483429
485,1.0,0.0003564579819794744,0.0003564579819794744,1e-04,0.8915555477142334,0.5164616107940674,0.5164616107940674
486,1.0,0.0003560138866305351,0.0003560138866305351,1e-04,0.8915555477142334,0.5134064555168152,0.5134064555168152
487,1.0,0.000355600961484015,0.000355600961484015,1e-04,0.8926666378974915,0.5104269981384277,0.5104269981384277
488,1.0,0.0003551535774022341,0.0003551535774022341,1e-04,0.8935555815696716,0.5074846148490906,0.5074846148490906
489,1.0,0.00035475389449857175,0.00035475389449857175,1e-04,0.8955555558204651,0.5046420097351074,0.5046420097351074
490,1.0,0.00035433153971098363,0.00035433153971098363,1e-04,0.8975555300712585,0.5020031332969666,0.5020031332969666
491,1.0,0.00035384047077968717,0.00035384047077968717,1e-04,0.8991110920906067,0.49927008152008057,0.49927008152008057
492,1.0,0.00035345356445759535,0.00035345356445759535,1e-04,0.8999999761581421,0.4965909421443939,0.4965909421443939
493,1.0,0.00035305070923641324,0.00035305070923641324,1e-04,0.9006666541099548,0.4939478039741516,0.4939478039741516
494,1.0,0.00035266141640022397,0.00035266141640022397,1e-04,0.9020000100135803,0.4913013279438019,0.4913013279438019
495,1.0,0.00035229657078161836,0.00035229657078161836,1e-04,0.9028888940811157,0.4888751208782196,0.4888751208782196
496,1.0,0.0003518620796967298,0.0003518620796967298,1e-04,0.9048888683319092,0.48646044731140137,0.48646044731140137
497,1.0,0.0003514436830300838,0.0003514436830300838,1e-04,0.9066666960716248,0.4839492738246918,0.4839492738246918
498,1.0,0.00035103337722830474,0.00035103337722830474,1e-04,0.9075555801391602,0.48153021931648254,0.48153021931648254
499,1.0,0.00035065863630734384,0.00035065863630734384,1e-04,0.9082221984863281,0.47908225655555725,0.47908225655555725
500,1.0,0.0003502527833916247,0.0003502527833916247,1e-04,0.9084444642066956,0.4767512083053589,0.4767512083053589
501,1.0,0.0003498406149446964,0.0003498406149446964,1e-04,0.9091110825538635,0.4743127226829529,0.4743127226829529
502,1.0,0.0003494482079986483,0.0003494482079986483,1e-04,0.9100000262260437,0.4720202386379242,0.4720202386379242
503,1.0,0.00034897145815193653,0.00034897145815193653,1e-04,0.9111111164093018,0.4697270393371582,0.4697270393371582
504,1.0,0.0003485583874862641,0.0003485583874862641,1e-04,0.9117777943611145,0.46750834584236145,0.46750834584236145
505,1.0,0.0003481640596874058,0.0003481640596874058,1e-04,0.9128888845443726,0.465410441160202,0.465410441160202
506,1.0,0.0003477689460851252,0.0003477689460851252,1e-04,0.913777768611908,0.4631693363189697,0.4631693363189697
507,1.0,0.000347325811162591,0.000347325811162591,1e-04,0.9144444465637207,0.4610941708087921,0.4610941708087921
508,1.0,0.00034689626772888005,0.00034689626772888005,1e-04,0.9155555367469788,0.45907101035118103,0.45907101035118103
509,1.0,0.00034651433816179633,0.00034651433816179633,1e-04,0.9164444208145142,0.4570915699005127,0.4570915699005127
510,1.0,0.0003461184969637543,0.0003461184969637543,1e-04,0.917555570602417,0.45517003536224365,0.45517003536224365
511,1.0,0.00034568729461170733,0.00034568729461170733,1e-04,0.9182222485542297,0.4533121585845947,0.4533121585845947
512,1.0,0.00034533266443759203,0.00034533266443759203,1e-04,0.9188888669013977,0.4514952600002289,0.4514952600002289
513,1.0,0.0003449370851740241,0.0003449370851740241,1e-04,0.9188888669013977,0.4497472047805786,0.4497472047805786
514,1.0,0.0003445865004323423,0.0003445865004323423,1e-04,0.9195555448532104,0.4478210210800171,0.4478210210800171
515,1.0,0.0003442243323661387,0.0003442243323661387,1e-04,0.9202222228050232,0.4461955428123474,0.4461955428123474
516,1.0,0.0003437782870605588,0.0003437782870605588,1e-04,0.9204444289207458,0.4445153474807739,0.4445153474807739
517,1.0,0.0003434212994761765,0.0003434212994761765,1e-04,0.9208889007568359,0.4429011344909668,0.4429011344909668
518,1.0,0.00034300159313715994,0.00034300159313715994,1e-04,0.9211111068725586,0.44133833050727844,0.44133833050727844
519,1.0,0.000342564977472648,0.000342564977472648,1e-04,0.9213333129882812,0.4397948682308197,0.4397948682308197
520,1.0,0.0003422025765758008,0.0003422025765758008,1e-04,0.9215555787086487,0.43809372186660767,0.43809372186660767
521,1.0,0.0003418054257053882,0.0003418054257053882,1e-04,0.921999990940094,0.43646493554115295,0.43646493554115295
522,1.0,0.0003413718077354133,0.0003413718077354133,1e-04,0.9228888750076294,0.43479594588279724,0.43479594588279724
523,1.0,0.0003410179924685508,0.0003410179924685508,1e-04,0.9233333468437195,0.43333473801612854,0.43333473801612854
524,1.0,0.00034060573671013117,0.00034060573671013117,1e-04,0.9240000247955322,0.43190351128578186,0.43190351128578186
525,1.0,0.000340177008183673,0.000340177008183673,1e-04,0.9242222309112549,0.4303443133831024,0.4303443133831024
526,1.0,0.00033980823354795575,0.00033980823354795575,1e-04,0.9246666431427002,0.4289615750312805,0.4289615750312805
527,1.0,0.000339397753123194,0.000339397753123194,1e-04,0.9251111149787903,0.42752423882484436,0.42752423882484436
528,1.0,0.00033901227288879454,0.00033901227288879454,1e-04,0.925777792930603,0.4261541962623596,0.4261541962623596
529,1.0,0.0003386081079952419,0.0003386081079952419,1e-04,0.925777792930603,0.42491739988327026,0.42491739988327026
530,1.0,0.00033823653939180076,0.00033823653939180076,1e-04,0.9262222051620483,0.42364737391471863,0.42364737391471863
531,1.0,0.00033787768916226923,0.00033787768916226923,1e-04,0.9262222051620483,0.4224720299243927,0.4224720299243927
532,1.0,0.0003374517837073654,0.0003374517837073654,1e-04,0.9268888831138611,0.4212801456451416,0.4212801456451416
533,1.0,0.00033701839856803417,0.00033701839856803417,1e-04,0.9275555610656738,0.42005011439323425,0.42005011439323425
534,1.0,0.0003366293094586581,0.0003366293094586581,1e-04,0.9286666512489319,0.4189149737358093,0.4189149737358093
535,1.0,0.0003362481074873358,0.0003362481074873358,1e-04,0.929111123085022,0.41786664724349976,0.41786664724349976
536,1.0,0.0003358576796017587,0.0003358576796017587,1e-04,0.929111123085022,0.4169065058231354,0.4169065058231354
537,1.0,0.0003355031367391348,0.0003355031367391348,1e-04,0.9295555353164673,0.4158235490322113,0.4158235490322113
538,1.0,0.0003351125051267445,0.0003351125051267445,1e-04,0.9297778010368347,0.4148157835006714,0.4148157835006714
539,1.0,0.0003347453020978719,0.0003347453020978719,1e-04,0.9300000071525574,0.41377413272857666,0.41377413272857666
540,1.0,0.00033437294769100845,0.00033437294769100845,1e-04,0.9300000071525574,0.4127632677555084,0.4127632677555084
541,1.0,0.0003339841205161065,0.0003339841205161065,1e-04,0.9300000071525574,0.4117960035800934,0.4117960035800934
542,1.0,0.0003335500368848443,0.0003335500368848443,1e-04,0.9306666851043701,0.41080498695373535,0.41080498695373535
543,1.0,0.0003331687184982002,0.0003331687184982002,1e-04,0.9306666851043701,0.40992119908332825,0.40992119908332825
544,1.0,0.00033270474523305893,0.00033270474523305893,1e-04,0.9311110973358154,0.4089965522289276,0.4089965522289276
545,1.0,0.0003322855627629906,0.0003322855627629906,1e-04,0.9313333630561829,0.4081622064113617,0.4081622064113617
546,1.0,0.00033185098436661065,0.00033185098436661065,1e-04,0.9313333630561829,0.4072756767272949,0.4072756767272949
547,1.0,0.00033145741326734424,0.00033145741326734424,1e-04,0.9317777752876282,0.4064290225505829,0.4064290225505829
548,1.0,0.0003310487372800708,0.0003310487372800708,1e-04,0.9319999814033508,0.4055837094783783,0.4055837094783783
549,1.0,0.00033064602757804096,0.00033064602757804096,1e-04,0.9322222471237183,0.4047544002532959,0.4047544002532959
550,1.0,0.0003302386321593076,0.0003302386321593076,1e-04,0.9322222471237183,0.4039996266365051,0.4039996266365051
551,1.0,0.000329818285536021,0.000329818285536021,1e-04,0.9324444532394409,0.4031428098678589,0.4031428098678589
552,1.0,0.00032948917942121625,0.00032948917942121625,1e-04,0.9324444532394409,0.40242719650268555,0.40242719650268555
553,1.0,0.00032906795968301594,0.00032906795968301594,1e-04,0.9324444532394409,0.4017324149608612,0.4017324149608612
554,1.0,0.00032869138522073627,0.00032869138522073627,1e-04,0.9324444532394409,0.40105751156806946,0.40105751156806946
555,1.0,0.00032832854776643217,0.00032832854776643217,1e-04,0.9324444532394409,0.4003414213657379,0.4003414213657379
556,1.0,0.0003279604425188154,0.0003279604425188154,1e-04,0.9324444532394409,0.399659126996994,0.399659126996994
557,1.0,0.0003276184434071183,0.0003276184434071183,1e-04,0.9324444532394409,0.3990091383457184,0.3990091383457184
558,1.0,0.00032726459903642535,0.00032726459903642535,1e-04,0.9328888654708862,0.3984073996543884,0.3984073996543884
559,1.0,0.00032687134807929397,0.00032687134807929397,1e-04,0.9328888654708862,0.3978273570537567,0.3978273570537567
560,1.0,0.0003264123806729913,0.0003264123806729913,1e-04,0.9331111311912537,0.3971652686595917,0.3971652686595917
561,1.0,0.0003260370285715908,0.0003260370285715908,1e-04,0.9331111311912537,0.3965233564376831,0.3965233564376831
562,1.0,0.0003256520431023091,0.0003256520431023091,1e-04,0.9331111311912537,0.39603710174560547,0.39603710174560547
563,1.0,0.0003253259928897023,0.0003253259928897023,1e-04,0.9333333373069763,0.3954310715198517,0.3954310715198517
564,1.0,0.00032497994834557176,0.00032497994834557176,1e-04,0.933555543422699,0.39491263031959534,0.39491263031959534
565,1.0,0.0003245715342927724,0.0003245715342927724,1e-04,0.9333333373069763,0.39440932869911194,0.39440932869911194
566,1.0,0.00032417496549896896,0.00032417496549896896,1e-04,0.933555543422699,0.39390385150909424,0.39390385150909424
567,1.0,0.00032372266286984086,0.00032372266286984086,1e-04,0.9337777495384216,0.39342600107192993,0.39342600107192993
568,1.0,0.00032333904528059065,0.00032333904528059065,1e-04,0.9340000152587891,0.39288130402565,0.39288130402565
569,1.0,0.0003229620633646846,0.0003229620633646846,1e-04,0.9342222213745117,0.3924075663089752,0.3924075663089752
570,1.0,0.0003225772816222161,0.0003225772816222161,1e-04,0.9342222213745117,0.39190739393234253,0.39190739393234253
571,1.0,0.0003222415398340672,0.0003222415398340672,1e-04,0.9344444274902344,0.3915095627307892,0.3915095627307892
572,1.0,0.00032188661862164736,0.00032188661862164736,1e-04,0.9344444274902344,0.3910861313343048,0.3910861313343048
573,1.0,0.0003214998578187078,0.0003214998578187078,1e-04,0.9348888993263245,0.3906765878200531,0.3906765878200531
574,1.0,0.0003211460425518453,0.0003211460425518453,1e-04,0.9353333115577698,0.390267014503479,0.390267014503479
575,1.0,0.0003207774425391108,0.0003207774425391108,1e-04,0.9351111054420471,0.3898712992668152,0.3898712992668152
576,1.0,0.00032042941893450916,0.00032042941893450916,1e-04,0.9355555772781372,0.3894936740398407,0.3894936740398407
577,1.0,0.00032003206433728337,0.00032003206433728337,1e-04,0.9355555772781372,0.3891126811504364,0.3891126811504364
578,1.0,0.00031968849361874163,0.00031968849361874163,1e-04,0.9355555772781372,0.38880935311317444,0.38880935311317444
579,1.0,0.0003192710573785007,0.0003192710573785007,1e-04,0.9357777833938599,0.3884464204311371,0.3884464204311371
580,1.0,0.00031896785367280245,0.00031896785367280245,1e-04,0.9362221956253052,0.388181209564209,0.388181209564209
581,1.0,0.00031860085437074304,0.00031860085437074304,1e-04,0.9366666674613953,0.3877793550491333,0.3877793550491333
582,1.0,0.0003181624924764037,0.0003181624924764037,1e-04,0.9371111392974854,0.3874547779560089,0.3874547779560089
583,1.0,0.00031780742574483156,0.00031780742574483156,1e-04,0.9371111392974854,0.38711902499198914,0.38711902499198914
584,1.0,0.00031746618333272636,0.00031746618333272636,1e-04,0.937333345413208,0.3867385983467102,0.3867385983467102
585,1.0,0.0003170687414240092,0.0003170687414240092,1e-04,0.9375555515289307,0.38642531633377075,0.38642531633377075
586,1.0,0.0003167115501128137,0.0003167115501128137,1e-04,0.9375555515289307,0.3861598074436188,0.3861598074436188
587,1.0,0.0003163245564792305,0.0003163245564792305,1e-04,0.9377777576446533,0.38586175441741943,0.38586175441741943
588,1.0,0.00031594064785167575,0.00031594064785167575,1e-04,0.9377777576446533,0.38553309440612793,0.38553309440612793
589,1.0,0.00031558104092255235,0.00031558104092255235,1e-04,0.9380000233650208,0.38518789410591125,0.38518789410591125
590,1.0,0.0003152655262965709,0.0003152655262965709,1e-04,0.9380000233650208,0.3849875330924988,0.3849875330924988
591,1.0,0.0003149324911646545,0.0003149324911646545,1e-04,0.9382222294807434,0.3846815228462219,0.3846815228462219
592,1.0,0.0003145079535897821,0.0003145079535897821,1e-04,0.9382222294807434,0.38445886969566345,0.38445886969566345
593,1.0,0.0003141100169159472,0.0003141100169159472,1e-04,0.9384444355964661,0.38417068123817444,0.38417068123817444
594,1.0,0.0003137253224849701,0.0003137253224849701,1e-04,0.9384444355964661,0.38397544622421265,0.38397544622421265
595,1.0,0.0003133742429781705,0.0003133742429781705,1e-04,0.9384444355964661,0.38376227021217346,0.38376227021217346
596,1.0,0.00031295864027924836,0.00031295864027924836,1e-04,0.9384444355964661,0.38353660702705383,0.38353660702705383
597,1.0,0.0003126041265204549,0.0003126041265204549,1e-04,0.9384444355964661,0.38330766558647156,0.38330766558647156
598,1.0,0.0003122478083241731,0.0003122478083241731,1e-04,0.9384444355964661,0.38306111097335815,0.38306111097335815
599,1.0,0.0003118561871815473,0.0003118561871815473,1e-04,0.9386666417121887,0.3828310966491699,0.3828310966491699
600,1.0,0.0003115018189419061,0.0003115018189419061,1e-04,0.9386666417121887,0.3826042115688324,0.3826042115688324
601,1.0,0.00031118959304876626,0.00031118959304876626,1e-04,0.9388889074325562,0.38241350650787354,0.38241350650787354
602,1.0,0.0003107903467025608,0.0003107903467025608,1e-04,0.9391111135482788,0.382260262966156,0.382260262966156
603,1.0,0.00031043117633089423,0.00031043117633089423,1e-04,0.9397777915000916,0.38207149505615234,0.38207149505615234
604,1.0,0.00031000084709376097,0.00031000084709376097,1e-04,0.9399999976158142,0.38187459111213684,0.38187459111213684
605,1.0,0.000309611699776724,0.000309611699776724,1e-04,0.9397777915000916,0.3816452622413635,0.3816452622413635
606,1.0,0.0003092877159360796,0.0003092877159360796,1e-04,0.9397777915000916,0.3814547657966614,0.3814547657966614
607,1.0,0.00030893582152202725,0.00030893582152202725,1e-04,0.9402222037315369,0.3812752962112427,0.3812752962112427
608,1.0,0.00030852213967591524,0.00030852213967591524,1e-04,0.9402222037315369,0.3811447024345398,0.3811447024345398
609,1.0,0.0003081448667217046,0.0003081448667217046,1e-04,0.9402222037315369,0.3810846507549286,0.3810846507549286
610,1.0,0.0003078218433074653,0.0003078218433074653,1e-04,0.9402222037315369,0.38089561462402344,0.38089561462402344
611,1.0,0.0003075225104112178,0.0003075225104112178,1e-04,0.9402222037315369,0.3807127773761749,0.3807127773761749
612,1.0,0.00030715554021298885,0.00030715554021298885,1e-04,0.9404444694519043,0.380534291267395,0.380534291267395
613,1.0,0.0003067938087042421,0.0003067938087042421,1e-04,0.9404444694519043,0.3803214132785797,0.3803214132785797
614,1.0,0.0003064204938709736,0.0003064204938709736,1e-04,0.9402222037315369,0.3802073895931244,0.3802073895931244
615,1.0,0.0003060299204662442,0.0003060299204662442,1e-04,0.940666675567627,0.38009408116340637,0.38009408116340637
616,1.0,0.00030568434158340096,0.00030568434158340096,1e-04,0.9408888816833496,0.379952996969223,0.379952996969223
617,1.0,0.000305346300592646,0.000305346300592646,1e-04,0.9408888816833496,0.3798913359642029,0.3798913359642029
618,1.0,0.0003050097147934139,0.0003050097147934139,1e-04,0.9408888816833496,0.3797505497932434,0.3797505497932434
619,1.0,0.0003046758647542447,0.0003046758647542447,1e-04,0.9408888816833496,0.37946760654449463,0.37946760654449463
620,1.0,0.00030436317319981754,0.00030436317319981754,1e-04,0.9408888816833496,0.379311740398407,0.379311740398407
621,1.0,0.0003039503062609583,0.0003039503062609583,1e-04,0.9411110877990723,0.3791050910949707,0.3791050910949707
622,1.0,0.00030356337083503604,0.00030356337083503604,1e-04,0.9413333535194397,0.37890511751174927,0.37890511751174927
623,1.0,0.00030321674421429634,0.00030321674421429634,1e-04,0.9411110877990723,0.3787950873374939,0.3787950873374939
624,1.0,0.0003028837381862104,0.0003028837381862104,1e-04,0.9411110877990723,0.3786580264568329,0.3786580264568329
625,1.0,0.00030248609255068004,0.00030248609255068004,1e-04,0.9408888816833496,0.3784874975681305,0.3784874975681305
626,1.0,0.00030212212004698813,0.00030212212004698813,1e-04,0.9408888816833496,0.37833359837532043,0.37833359837532043
627,1.0,0.0003017476701643318,0.0003017476701643318,1e-04,0.940666675567627,0.37818166613578796,0.37818166613578796
628,1.0,0.0003013660025317222,0.0003013660025317222,1e-04,0.9404444694519043,0.3780028820037842,0.3780028820037842
629,1.0,0.00030099827563390136,0.00030099827563390136,1e-04,0.9404444694519043,0.37789028882980347,0.37789028882980347
630,1.0,0.00030070412321947515,0.00030070412321947515,1e-04,0.9404444694519043,0.377706378698349,0.377706378698349
631,1.0,0.0003003314195666462,0.0003003314195666462,1e-04,0.9404444694519043,0.3776179850101471,0.3776179850101471
632,1.0,0.0003000037686433643,0.0003000037686433643,1e-04,0.9402222037315369,0.3775387704372406,0.3775387704372406
633,1.0,0.0002996505063492805,0.0002996505063492805,1e-04,0.9402222037315369,0.37758946418762207,0.37758946418762207
634,1.0,0.0002993404632434249,0.0002993404632434249,1e-04,0.9402222037315369,0.3774360418319702,0.3774360418319702
635,1.0,0.0002990079519804567,0.0002990079519804567,1e-04,0.9402222037315369,0.3773021996021271,0.3773021996021271
636,1.0,0.00029869037098251283,0.00029869037098251283,1e-04,0.9402222037315369,0.377131849527359,0.377131849527359
637,1.0,0.0002983443846460432,0.0002983443846460432,1e-04,0.9402222037315369,0.37701424956321716,0.37701424956321716
638,1.0,0.00029800954507663846,0.00029800954507663846,1e-04,0.940666675567627,0.3769053816795349,0.3769053816795349
639,1.0,0.0002976749383378774,0.0002976749383378774,1e-04,0.9408888816833496,0.37680262327194214,0.37680262327194214
640,1.0,0.00029729411471635103,0.00029729411471635103,1e-04,0.9411110877990723,0.3767281770706177,0.3767281770706177
641,1.0,0.0002969172492157668,0.0002969172492157668,1e-04,0.9413333535194397,0.37663599848747253,0.37663599848747253
642,1.0,0.0002965942258015275,0.0002965942258015275,1e-04,0.9413333535194397,0.3765638768672943,0.3765638768672943
643,1.0,0.00029629954951815307,0.00029629954951815307,1e-04,0.9413333535194397,0.37655049562454224,0.37655049562454224
644,1.0,0.0002958933764602989,0.0002958933764602989,1e-04,0.9413333535194397,0.3764485716819763,0.3764485716819763
645,1.0,0.00029560134862549603,0.00029560134862549603,1e-04,0.9411110877990723,0.37629324197769165,0.37629324197769165
646,1.0,0.00029524616547860205,0.00029524616547860205,1e-04,0.9411110877990723,0.37622755765914917,0.37622755765914917
647,1.0,0.0002949220361188054,0.0002949220361188054,1e-04,0.9411110877990723,0.37617164850234985,0.37617164850234985
648,1.0,0.0002944849547930062,0.0002944849547930062,1e-04,0.9411110877990723,0.37609878182411194,0.37609878182411194
649,1.0,0.00029411347350105643,0.00029411347350105643,1e-04,0.9411110877990723,0.37606167793273926,0.37606167793273926
650,1.0,0.0002937769750133157,0.0002937769750133157,1e-04,0.9408888816833496,0.3759785294532776,0.3759785294532776
651,1.0,0.00029342048219405115,0.00029342048219405115,1e-04,0.9411110877990723,0.37585726380348206,0.37585726380348206
652,1.0,0.0002930661430582404,0.0002930661430582404,1e-04,0.9413333535194397,0.37574946880340576,0.37574946880340576
653,1.0,0.00029273077961988747,0.00029273077961988747,1e-04,0.9415555596351624,0.3756163418292999,0.3756163418292999
654,1.0,0.0002923890424426645,0.0002923890424426645,1e-04,0.9415555596351624,0.37550780177116394,0.37550780177116394
655,1.0,0.0002920746337622404,0.0002920746337622404,1e-04,0.9415555596351624,0.37547117471694946,0.37547117471694946
656,1.0,0.000291707314318046,0.000291707314318046,1e-04,0.9419999718666077,0.37537190318107605,0.37537190318107605
657,1.0,0.0002913288481067866,0.0002913288481067866,1e-04,0.9422222375869751,0.37531667947769165,0.37531667947769165
658,1.0,0.00029098737286403775,0.00029098737286403775,1e-04,0.9424444437026978,0.37521710991859436,0.37521710991859436
659,1.0,0.0002906796580646187,0.0002906796580646187,1e-04,0.9424444437026978,0.3750408887863159,0.3750408887863159
660,1.0,0.0002903978747781366,0.0002903978747781366,1e-04,0.9424444437026978,0.3750457763671875,0.3750457763671875
661,1.0,0.000290006137220189,0.000290006137220189,1e-04,0.9424444437026978,0.3749659061431885,0.3749659061431885
662,1.0,0.0002896676887758076,0.0002896676887758076,1e-04,0.9428889155387878,0.3748933672904968,0.3748933672904968
663,1.0,0.00028936585295014083,0.00028936585295014083,1e-04,0.9426666498184204,0.3748297393321991,0.3748297393321991
664,1.0,0.0002890384057536721,0.0002890384057536721,1e-04,0.9426666498184204,0.37474480271339417,0.37474480271339417
665,1.0,0.0002887244045268744,0.0002887244045268744,1e-04,0.9428889155387878,0.3746965527534485,0.3746965527534485
666,1.0,0.0002884133136831224,0.0002884133136831224,1e-04,0.9428889155387878,0.3746495544910431,0.3746495544910431
667,1.0,0.0002880782703869045,0.0002880782703869045,1e-04,0.9428889155387878,0.3746728301048279,0.3746728301048279
668,1.0,0.0002878003870137036,0.0002878003870137036,1e-04,0.9431111216545105,0.3745729327201843,0.3745729327201843
669,1.0,0.00028743952861987054,0.00028743952861987054,1e-04,0.9431111216545105,0.3745427131652832,0.3745427131652832
670,1.0,0.0002870979660656303,0.0002870979660656303,1e-04,0.9431111216545105,0.3743772506713867,0.3743772506713867
671,1.0,0.00028682671836577356,0.00028682671836577356,1e-04,0.9426666498184204,0.37425923347473145,0.37425923347473145
672,1.0,0.00028643643599934876,0.00028643643599934876,1e-04,0.9428889155387878,0.3742139935493469,0.3742139935493469
673,1.0,0.0002861248794943094,0.0002861248794943094,1e-04,0.9426666498184204,0.3741511106491089,0.3741511106491089
674,1.0,0.00028579283389262855,0.00028579283389262855,1e-04,0.9424444437026978,0.37409383058547974,0.37409383058547974
675,1.0,0.00028548273257911205,0.00028548273257911205,1e-04,0.9422222375869751,0.37403640151023865,0.37403640151023865
676,1.0,0.0002851475728675723,0.0002851475728675723,1e-04,0.9422222375869751,0.3739589750766754,0.3739589750766754
677,1.0,0.0002848136064130813,0.0002848136064130813,1e-04,0.9422222375869751,0.37386828660964966,0.37386828660964966
678,1.0,0.00028450446552596986,0.00028450446552596986,1e-04,0.9422222375869751,0.3738606870174408,0.3738606870174408
679,1.0,0.00028420411399565637,0.00028420411399565637,1e-04,0.9422222375869751,0.37382662296295166,0.37382662296295166
680,1.0,0.0002838345826603472,0.0002838345826603472,1e-04,0.9422222375869751,0.37374424934387207,0.37374424934387207
681,1.0,0.0002834769547916949,0.0002834769547916949,1e-04,0.9424444437026978,0.3736970126628876,0.3736970126628876
682,1.0,0.00028320829733274877,0.00028320829733274877,1e-04,0.9424444437026978,0.3735576570034027,0.3735576570034027
683,1.0,0.0002828368451446295,0.0002828368451446295,1e-04,0.9426666498184204,0.37351787090301514,0.37351787090301514
684,1.0,0.00028246146393939853,0.00028246146393939853,1e-04,0.9426666498184204,0.3734436631202698,0.3734436631202698
685,1.0,0.00028212607139721513,0.00028212607139721513,1e-04,0.9426666498184204,0.37348753213882446,0.37348753213882446
686,1.0,0.0002818254579324275,0.0002818254579324275,1e-04,0.9426666498184204,0.373494416475296,0.37349438667297363
687,1.0,0.00028148110141046345,0.00028148110141046345,1e-04,0.9426666498184204,0.3734409511089325,0.3734409213066101
688,1.0,0.00028117524925619364,0.00028117524925619364,1e-04,0.9426666498184204,0.373309463262558,0.373309463262558
689,1.0,0.0002808796998579055,0.0002808796998579055,1e-04,0.9426666498184204,0.37322890758514404,0.37322890758514404
690,1.0,0.00028060126351192594,0.00028060126351192594,1e-04,0.9424444437026978,0.3731437027454376,0.3731437027454376
691,1.0,0.00028025562642142177,0.00028025562642142177,1e-04,0.9422222375869751,0.3730675280094147,0.3730675280094147
692,1.0,0.000279864325420931,0.000279864325420931,1e-04,0.9422222375869751,0.373019814491272,0.373019814491272
693,1.0,0.00027954846154898405,0.00027954846154898405,1e-04,0.941777765750885,0.37301555275917053,0.37301555275917053
694,1.0,0.00027920096181333065,0.00027920096181333065,1e-04,0.941777765750885,0.3729965090751648,0.3729965090751648
695,1.0,0.0002788761048577726,0.0002788761048577726,1e-04,0.941777765750885,0.37291818857192993,0.37291818857192993
696,1.0,0.0002785523538477719,0.0002785523538477719,1e-04,0.941777765750885,0.37285321950912476,0.37285321950912476
697,1.0,0.0002782270312309265,0.0002782270312309265,1e-04,0.941777765750885,0.37280046939849854,0.37280046939849854
698,1.0,0.00027796404901891947,0.00027796404901891947,1e-04,0.941777765750885,0.3727293312549591,0.3727293312549591
699,1.0,0.0002776541805360466,0.0002776541805360466,1e-04,0.941777765750885,0.3726727366447449,0.3726727366447449
700,1.0,0.0002772747538983822,0.0002772747538983822,1e-04,0.9415555596351624,0.3725668787956238,0.3725668787956238
701,1.0,0.00027699299971573055,0.00027699299971573055,1e-04,0.9415555596351624,0.37251541018486023,0.37251541018486023
702,1.0,0.0002766297839116305,0.0002766297839116305,1e-04,0.9415555596351624,0.37245693802833557,0.37245693802833557
703,1.0,0.00027631374541670084,0.00027631374541670084,1e-04,0.9415555596351624,0.37242355942726135,0.37242355942726135
704,1.0,0.0002759672061074525,0.0002759672061074525,1e-04,0.9415555596351624,0.3724098205566406,0.3724098205566406
705,1.0,0.00027568303630687296,0.00027568303630687296,1e-04,0.9415555596351624,0.3724103569984436,0.3724103569984436
706,1.0,0.00027532808599062264,0.00027532808599062264,1e-04,0.9415555596351624,0.3723551332950592,0.3723551332950592
707,1.0,0.00027505678008310497,0.00027505678008310497,1e-04,0.9413333535194397,0.3723367750644684,0.3723367750644684
708,1.0,0.0002747396065387875,0.0002747396065387875,1e-04,0.9415555596351624,0.3722451329231262,0.3722451329231262
709,1.0,0.0002744235680438578,0.0002744235680438578,1e-04,0.9415555596351624,0.372152715921402,0.372152715921402
710,1.0,0.00027412723284214735,0.00027412723284214735,1e-04,0.9415555596351624,0.3720631003379822,0.3720631003379822
711,1.0,0.0002738188486546278,0.0002738188486546278,1e-04,0.9415555596351624,0.3719889223575592,0.3719889223575592
712,1.0,0.00027353165205568075,0.00027353165205568075,1e-04,0.9415555596351624,0.37187454104423523,0.37187454104423523
713,1.0,0.0002732462889980525,0.0002732462889980525,1e-04,0.9415555596351624,0.37182995676994324,0.37182995676994324
714,1.0,0.00027289969148114324,0.00027289969148114324,1e-04,0.941777765750885,0.37182119488716125,0.37182119488716125
715,1.0,0.00027260027127340436,0.00027260027127340436,1e-04,0.941777765750885,0.3718242049217224,0.3718242049217224
716,1.0,0.0002723088546190411,0.0002723088546190411,1e-04,0.9415555596351624,0.3718157112598419,0.3718157112598419
717,1.0,0.0002720115298870951,0.0002720115298870951,1e-04,0.9415555596351624,0.3717600405216217,0.3717600405216217
718,1.0,0.00027169217355549335,0.00027169217355549335,1e-04,0.941777765750885,0.3716786503791809,0.3716786503791809
719,1.0,0.00027138349832966924,0.00027138349832966924,1e-04,0.941777765750885,0.3716105818748474,0.3716105818748474
720,1.0,0.000271075579803437,0.000271075579803437,1e-04,0.941777765750885,0.3716244399547577,0.3716244399547577
721,1.0,0.0002707482490222901,0.0002707482490222901,1e-04,0.941777765750885,0.37165623903274536,0.37165626883506775
722,1.0,0.0002705050283111632,0.0002705050283111632,1e-04,0.941777765750885,0.3716510534286499,0.3716510534286499
723,1.0,0.0002701756311580539,0.0002701756311580539,1e-04,0.9419999718666077,0.3716541826725006,0.3716541826725006
724,1.0,0.00026988142053596675,0.00026988142053596675,1e-04,0.9419999718666077,0.371627539396286,0.371627539396286
725,1.0,0.0002695396833587438,0.0002695396833587438,1e-04,0.9419999718666077,0.371506929397583,0.371506929397583
726,1.0,0.00026923249242827296,0.00026923249242827296,1e-04,0.941777765750885,0.3714914619922638,0.3714914619922638
727,1.0,0.0002689721586648375,0.0002689721586648375,1e-04,0.9415555596351624,0.3714649975299835,0.37146496772766113
728,1.0,0.0002686898224055767,0.0002686898224055767,1e-04,0.941777765750885,0.371422678232193,0.371422678232193
729,1.0,0.0002682753838598728,0.0002682753838598728,1e-04,0.941777765750885,0.37138664722442627,0.37138664722442627
730,1.0,0.00026795975281856954,0.00026795975281856954,1e-04,0.9419999718666077,0.3712945282459259,0.3712945282459259
731,1.0,0.0002676662988960743,0.0002676662988960743,1e-04,0.9419999718666077,0.3713233768939972,0.3713233768939972
732,1.0,0.0002673716517165303,0.0002673716517165303,1e-04,0.9419999718666077,0.3712879419326782,0.3712879419326782
733,1.0,0.00026709199300967157,0.00026709199300967157,1e-04,0.9419999718666077,0.3712395131587982,0.3712395131587982
734,1.0,0.0002668060187716037,0.0002668060187716037,1e-04,0.941777765750885,0.3711966276168823,0.3711966276168823
735,1.0,0.00026648156926967204,0.00026648156926967204,1e-04,0.941777765750885,0.3712252080440521,0.3712252080440521
736,1.0,0.00026618214906193316,0.00026618214906193316,1e-04,0.941777765750885,0.3712443709373474,0.3712443709373474
737,1.0,0.0002658407320268452,0.0002658407320268452,1e-04,0.941777765750885,0.3712776005268097,0.3712776005268097
738,1.0,0.0002655682619661093,0.0002655682619661093,1e-04,0.941777765750885,0.3712846338748932,0.3712846338748932
739,1.0,0.00026530769537203014,0.00026530769537203014,1e-04,0.9419999718666077,0.3712334930896759,0.3712334930896759
740,1.0,0.0002649856614880264,0.0002649856614880264,1e-04,0.9419999718666077,0.37115228176116943,0.37115228176116943
741,1.0,0.00026464767870493233,0.00026464767870493233,1e-04,0.9419999718666077,0.37113651633262634,0.37113651633262634
742,1.0,0.00026437739143148065,0.00026437739143148065,1e-04,0.9419999718666077,0.37113508582115173,0.37113508582115173
743,1.0,0.0002640493621584028,0.0002640493621584028,1e-04,0.9419999718666077,0.3710814118385315,0.3710814118385315
744,1.0,0.00026373035507276654,0.00026373035507276654,1e-04,0.9419999718666077,0.37105390429496765,0.37105390429496765
745,1.0,0.0002634554693941027,0.0002634554693941027,1e-04,0.9419999718666077,0.37102919816970825,0.37102919816970825
746,1.0,0.00026313032140024006,0.00026313032140024006,1e-04,0.9419999718666077,0.37104475498199463,0.37104475498199463
747,1.0,0.00026283704210072756,0.00026283704210072756,1e-04,0.9419999718666077,0.3709060549736023,0.3709060549736023
748,1.0,0.00026254027034156024,0.00026254027034156024,1e-04,0.9419999718666077,0.37087732553482056,0.37087732553482056
749,1.0,0.0002622303436510265,0.0002622303436510265,1e-04,0.9424444437026978,0.3708639442920685,0.3708639442920685
750,1.0,0.0002619368606247008,0.0002619368606247008,1e-04,0.9424444437026978,0.37086451053619385,0.37086451053619385
751,1.0,0.000261670327745378,0.000261670327745378,1e-04,0.9424444437026978,0.3708588182926178,0.3708588182926178
752,1.0,0.00026138091925531626,0.00026138091925531626,1e-04,0.9424444437026978,0.37083831429481506,0.37083831429481506
753,1.0,0.0002610411902423948,0.0002610411902423948,1e-04,0.9424444437026978,0.37074899673461914,0.37074899673461914
754,1.0,0.00026076214271597564,0.00026076214271597564,1e-04,0.9424444437026978,0.3706955909729004,0.3706955909729004
755,1.0,0.0002604677283670753,0.0002604677283670753,1e-04,0.9422222375869751,0.37071701884269714,0.37071701884269714
756,1.0,0.00026016775518655777,0.00026016775518655777,1e-04,0.9419999718666077,0.37075984477996826,0.37075984477996826
757,1.0,0.00025985040701925755,0.00025985040701925755,1e-04,0.9424444437026978,0.3707178235054016,0.3707178235054016
758,1.0,0.00025958268088288605,0.00025958268088288605,1e-04,0.9424444437026978,0.37071096897125244,0.37071096897125244
759,1.0,0.0002592666132841259,0.0002592666132841259,1e-04,0.9424444437026978,0.3707113265991211,0.3707113265991211
760,1.0,0.00025897700106725097,0.00025897700106725097,1e-04,0.9422222375869751,0.37064388394355774,0.37064388394355774
761,1.0,0.00025869454839266837,0.00025869454839266837,1e-04,0.9422222375869751,0.3706553876399994,0.3706553876399994
762,1.0,0.00025838587316684425,0.00025838587316684425,1e-04,0.9422222375869751,0.3707617223262787,0.3707617223262787
763,1.0,0.0002580916043370962,0.0002580916043370962,1e-04,0.9419999718666077,0.3708139657974243,0.3708139657974243
764,1.0,0.0002578214043751359,0.0002578214043751359,1e-04,0.9419999718666077,0.3708336055278778,0.3708336055278778
765,1.0,0.0002575417165644467,0.0002575417165644467,1e-04,0.9419999718666077,0.37081801891326904,0.37081801891326904
766,1.0,0.00025721522979438305,0.00025721522979438305,1e-04,0.9419999718666077,0.37075164914131165,0.37075164914131165
767,1.0,0.000256916246144101,0.000256916246144101,1e-04,0.9422222375869751,0.3706437647342682,0.3706437647342682
768,1.0,0.00025664668646641076,0.00025664668646641076,1e-04,0.9422222375869751,0.3706304728984833,0.3706304728984833
769,1.0,0.0002563880989328027,0.0002563880989328027,1e-04,0.9422222375869751,0.37058642506599426,0.37058642506599426
770,1.0,0.00025605011614970863,0.00025605011614970863,1e-04,0.9422222375869751,0.37051331996917725,0.37051331996917725
771,1.0,0.00025579737848602235,0.00025579737848602235,1e-04,0.9419999718666077,0.3705146908760071,0.3705146908760071
772,1.0,0.0002555119281169027,0.0002555119281169027,1e-04,0.9419999718666077,0.37048882246017456,0.3704887926578522
773,1.0,0.00025525232194922864,0.00025525232194922864,1e-04,0.9419999718666077,0.3704811632633209,0.3704811632633209
774,1.0,0.0002549654745962471,0.0002549654745962471,1e-04,0.941777765750885,0.37043505907058716,0.37043505907058716
775,1.0,0.00025469850515946746,0.00025469850515946746,1e-04,0.941777765750885,0.37046369910240173,0.37046369910240173
776,1.0,0.00025438045850023627,0.00025438045850023627,1e-04,0.941777765750885,0.3704385757446289,0.3704385757446289
777,1.0,0.00025408557849004865,0.00025408557849004865,1e-04,0.941777765750885,0.37046578526496887,0.37046578526496887
778,1.0,0.00025381860905326903,0.00025381860905326903,1e-04,0.941777765750885,0.37046018242836,0.37046018242836
779,1.0,0.00025351866497658193,0.00025351866497658193,1e-04,0.941777765750885,0.3704327940940857,0.3704327940940857
780,1.0,0.00025324642774648964,0.00025324642774648964,1e-04,0.941777765750885,0.3704439699649811,0.3704439699649811
781,1.0,0.0002529755875002593,0.0002529755875002593,1e-04,0.941777765750885,0.37038350105285645,0.37038350105285645
782,1.0,0.0002526947937440127,0.0002526947937440127,1e-04,0.941777765750885,0.3704153299331665,0.3704153299331665
783,1.0,0.0002523826260585338,0.0002523826260585338,1e-04,0.941777765750885,0.3704221844673157,0.3704221844673157
784,1.0,0.0002520262496545911,0.0002520262496545911,1e-04,0.941777765750885,0.3703781068325043,0.3703781068325043
785,1.0,0.00025178282521665096,0.00025178282521665096,1e-04,0.9419999718666077,0.3703666627407074,0.3703666627407074
786,1.0,0.00025152810849249363,0.00025152810849249363,1e-04,0.9419999718666077,0.3703910708427429,0.3703910708427429
787,1.0,0.0002512520004529506,0.0002512520004529506,1e-04,0.9419999718666077,0.37040701508522034,0.37040701508522034
788,1.0,0.00025091992574743927,0.00025091992574743927,1e-04,0.9422222375869751,0.37039923667907715,0.37039923667907715
789,1.0,0.0002506745222490281,0.0002506745222490281,1e-04,0.9422222375869751,0.3703998923301697,0.3703998625278473
790,1.0,0.0002504081930965185,0.0002504081930965185,1e-04,0.9422222375869751,0.37033209204673767,0.37033209204673767
791,1.0,0.00025013505364768207,0.00025013505364768207,1e-04,0.9422222375869751,0.37024179100990295,0.37024179100990295
792,1.0,0.0002498528629075736,0.0002498528629075736,1e-04,0.9422222375869751,0.37020424008369446,0.37020424008369446
793,1.0,0.00024950678925961256,0.00024950678925961256,1e-04,0.9422222375869751,0.3701581060886383,0.3701581060886383
794,1.0,0.00024928234051913023,0.00024928234051913023,1e-04,0.9422222375869751,0.3701198697090149,0.3701198697090149
795,1.0,0.0002490374317858368,0.0002490374317858368,1e-04,0.9422222375869751,0.3701048493385315,0.3701048493385315
796,1.0,0.0002487181918695569,0.0002487181918695569,1e-04,0.9422222375869751,0.37010303139686584,0.37010303139686584
797,1.0,0.0002484771248418838,0.0002484771248418838,1e-04,0.9422222375869751,0.37008973956108093,0.37008973956108093
798,1.0,0.0002481626288499683,0.0002481626288499683,1e-04,0.9422222375869751,0.3700847029685974,0.3700847029685974
799,1.0,0.0002478694368619472,0.0002478694368619472,1e-04,0.9422222375869751,0.3700300455093384,0.37003007531166077
800,1.0,0.0002475865767337382,0.0002475865767337382,1e-04,0.9422222375869751,0.370061457157135,0.370061457157135
801,1.0,0.0002472878259140998,0.0002472878259140998,1e-04,0.9422222375869751,0.37005317211151123,0.37005317211151123
802,1.0,0.0002470370091032237,0.0002470370091032237,1e-04,0.9422222375869751,0.3699893057346344,0.3699893057346344
803,1.0,0.00024678121553733945,0.00024678121553733945,1e-04,0.9422222375869751,0.3698960244655609,0.3698960244655609
804,1.0,0.00024648680118843913,0.00024648680118843913,1e-04,0.9422222375869751,0.3699277937412262,0.3699277937412262
805,1.0,0.00024626427330076694,0.00024626427330076694,1e-04,0.9422222375869751,0.3699430227279663,0.3699430227279663
806,1.0,0.0002459795796312392,0.0002459795796312392,1e-04,0.9419999718666077,0.3700162172317505,0.3700162172317505
807,1.0,0.0002457317605149001,0.0002457317605149001,1e-04,0.9419999718666077,0.3700472414493561,0.3700472414493561
808,1.0,0.0002454871137160808,0.0002454871137160808,1e-04,0.9419999718666077,0.3699161112308502,0.3699161112308502
809,1.0,0.000245161063503474,0.000245161063503474,1e-04,0.9419999718666077,0.3698755204677582,0.3698755204677582
810,1.0,0.0002448995946906507,0.0002448995946906507,1e-04,0.9419999718666077,0.3698839247226715,0.3698839247226715
811,1.0,0.00024464662419632077,0.00024464662419632077,1e-04,0.9419999718666077,0.36989060044288635,0.36989060044288635
812,1.0,0.0002443819248583168,0.0002443819248583168,1e-04,0.9419999718666077,0.36995384097099304,0.36995384097099304
813,1.0,0.00024402760027442127,0.00024402760027442127,1e-04,0.9419999718666077,0.3699987530708313,0.3699987530708313
814,1.0,0.00024368638696614653,0.00024368638696614653,1e-04,0.9419999718666077,0.36997291445732117,0.36997291445732117
815,1.0,0.00024345889687538147,0.00024345889687538147,1e-04,0.9419999718666077,0.36991286277770996,0.36991286277770996
816,1.0,0.00024319881049450487,0.00024319881049450487,1e-04,0.9419999718666077,0.3698720633983612,0.3698720633983612
817,1.0,0.00024293897149618715,0.00024293897149618715,1e-04,0.9419999718666077,0.36991357803344727,0.36991357803344727
818,1.0,0.00024266143736895174,0.00024266143736895174,1e-04,0.9419999718666077,0.3698822259902954,0.3698822259902954
819,1.0,0.00024238723563030362,0.00024238723563030362,1e-04,0.9419999718666077,0.36990129947662354,0.36990129947662354
820,1.0,0.0002420930250082165,0.0002420930250082165,1e-04,0.9419999718666077,0.36990171670913696,0.36990171670913696
821,1.0,0.00024178643070627004,0.00024178643070627004,1e-04,0.9419999718666077,0.36991557478904724,0.36991557478904724
822,1.0,0.00024155630671884865,0.00024155630671884865,1e-04,0.9419999718666077,0.3699507415294647,0.3699507415294647
823,1.0,0.00024128658697009087,0.00024128658697009087,1e-04,0.9419999718666077,0.3699391484260559,0.3699391484260559
824,1.0,0.00024101171584334224,0.00024101171584334224,1e-04,0.9419999718666077,0.36992576718330383,0.3699257969856262
825,1.0,0.00024072064843494445,0.00024072064843494445,1e-04,0.9419999718666077,0.36992210149765015,0.36992210149765015
826,1.0,0.0002404726401437074,0.0002404726401437074,1e-04,0.9419999718666077,0.3699176609516144,0.3699176609516144
827,1.0,0.00024022770230658352,0.00024022770230658352,1e-04,0.9419999718666077,0.36987993121147156,0.36987993121147156
828,1.0,0.00023998091637622565,0.00023998091637622565,1e-04,0.9422222375869751,0.369884729385376,0.369884729385376
829,1.0,0.0002396590862190351,0.0002396590862190351,1e-04,0.9422222375869751,0.36989066004753113,0.36989066004753113
830,1.0,0.00023937226796988398,0.00023937226796988398,1e-04,0.9422222375869751,0.3698899447917938,0.3698899447917938
831,1.0,0.00023914048506412655,0.00023914048506412655,1e-04,0.9424444437026978,0.36986634135246277,0.36986634135246277
832,1.0,0.00023888773284852505,0.00023888773284852505,1e-04,0.9424444437026978,0.3698539435863495,0.3698539435863495
833,1.0,0.00023862473608460277,0.00023862473608460277,1e-04,0.9424444437026978,0.3698541820049286,0.3698541820049286
834,1.0,0.0002383615355938673,0.0002383615355938673,1e-04,0.9424444437026978,0.3698849081993103,0.3698849081993103
835,1.0,0.00023812441213522106,0.00023812441213522106,1e-04,0.9424444437026978,0.36981770396232605,0.36981770396232605
836,1.0,0.00023788506223354489,0.00023788506223354489,1e-04,0.9424444437026978,0.36977419257164,0.36977419257164
837,1.0,0.00023763757781125605,0.00023763757781125605,1e-04,0.9424444437026978,0.3697144091129303,0.3697144091129303
838,1.0,0.00023735528520774096,0.00023735528520774096,1e-04,0.9424444437026978,0.369764119386673,0.369764119386673
839,1.0,0.00023709893866907805,0.00023709893866907805,1e-04,0.9424444437026978,0.36986544728279114,0.36986544728279114
840,1.0,0.00023683351173531264,0.00023683351173531264,1e-04,0.9424444437026978,0.36981239914894104,0.36981239914894104
841,1.0,0.00023658292775508016,0.00023658292775508016,1e-04,0.9424444437026978,0.3698325753211975,0.3698325753211975
842,1.0,0.00023631585645489395,0.00023631585645489395,1e-04,0.9422222375869751,0.3698124885559082,0.3698124885559082
843,1.0,0.0002360069047426805,0.0002360069047426805,1e-04,0.9422222375869751,0.36980360746383667,0.36980360746383667
844,1.0,0.00023577197862323374,0.00023577197862323374,1e-04,0.9422222375869751,0.36981141567230225,0.36981141567230225
845,1.0,0.0002355176256969571,0.0002355176256969571,1e-04,0.9422222375869751,0.36983203887939453,0.36983203887939453
846,1.0,0.00023527465236838907,0.00023527465236838907,1e-04,0.9422222375869751,0.3698905110359192,0.3698905110359192
847,1.0,0.00023501225223299116,0.00023501225223299116,1e-04,0.9422222375869751,0.36992770433425903,0.36992770433425903
848,1.0,0.0002347757399547845,0.0002347757399547845,1e-04,0.9419999718666077,0.36990565061569214,0.36990565061569214
849,1.0,0.00023452629102393985,0.00023452629102393985,1e-04,0.9419999718666077,0.36986833810806274,0.36986833810806274
850,1.0,0.0002342286752536893,0.0002342286752536893,1e-04,0.9419999718666077,0.3698505163192749,0.3698505163192749
851,1.0,0.00023397350742015988,0.00023397350742015988,1e-04,0.9419999718666077,0.36983269453048706,0.36983269453048706
852,1.0,0.00023369649716187268,0.00023369649716187268,1e-04,0.9415555596351624,0.36983779072761536,0.36983779072761536
853,1.0,0.00023342233907897025,0.00023342233907897025,1e-04,0.941777765750885,0.3697655498981476,0.3697655498981476
854,1.0,0.00023316199076361954,0.00023316199076361954,1e-04,0.9415555596351624,0.36981865763664246,0.36981865763664246
855,1.0,0.00023286511714104563,0.00023286511714104563,1e-04,0.9415555596351624,0.3698557913303375,0.3698557913303375
856,1.0,0.00023258729197550565,0.00023258729197550565,1e-04,0.9415555596351624,0.36986568570137024,0.36986568570137024
857,1.0,0.00023231349769048393,0.00023231349769048393,1e-04,0.9415555596351624,0.3698731064796448,0.3698731064796448
858,1.0,0.00023206359765026718,0.00023206359765026718,1e-04,0.9415555596351624,0.3699047267436981,0.3699047267436981
859,1.0,0.0002317944454262033,0.0002317944454262033,1e-04,0.9413333535194397,0.36988648772239685,0.36988648772239685
860,1.0,0.00023151643108576536,0.00023151643108576536,1e-04,0.9413333535194397,0.36982491612434387,0.36982491612434387
861,1.0,0.0002312968426849693,0.0002312968426849693,1e-04,0.9413333535194397,0.3698236346244812,0.3698236346244812
862,1.0,0.000231084311963059,0.000231084311963059,1e-04,0.9413333535194397,0.36988013982772827,0.36988013982772827
863,1.0,0.00023081892868503928,0.00023081892868503928,1e-04,0.9413333535194397,0.3699335753917694,0.3699335753917694
864,1.0,0.00023056758800521493,0.00023056758800521493,1e-04,0.9413333535194397,0.36990320682525635,0.36990320682525635
865,1.0,0.0002303074288647622,0.0002303074288647622,1e-04,0.9413333535194397,0.3698607385158539,0.3698607385158539
866,1.0,0.00023007467098068446,0.00023007467098068446,1e-04,0.9413333535194397,0.36987683176994324,0.36987683176994324
867,1.0,0.00022978219203650951,0.00022978219203650951,1e-04,0.9413333535194397,0.3698629140853882,0.3698629140853882
868,1.0,0.00022956772590987384,0.00022956772590987384,1e-04,0.9413333535194397,0.3698618412017822,0.3698618412017822
869,1.0,0.00022931379498913884,0.00022931379498913884,1e-04,0.9413333535194397,0.36987367272377014,0.36987367272377014
870,1.0,0.00022908202663529664,0.00022908202663529664,1e-04,0.9413333535194397,0.3699229657649994,0.3699229657649994
871,1.0,0.0002288192481501028,0.0002288192481501028,1e-04,0.9413333535194397,0.3699950873851776,0.3699950873851776
872,1.0,0.00022861050092615187,0.00022861050092615187,1e-04,0.9413333535194397,0.3700205981731415,0.3700205981731415
873,1.0,0.0002283217036165297,0.0002283217036165297,1e-04,0.9413333535194397,0.37000367045402527,0.37000367045402527
874,1.0,0.0002280480257468298,0.0002280480257468298,1e-04,0.9413333535194397,0.3698989450931549,0.3698989450931549
875,1.0,0.00022784245084039867,0.00022784245084039867,1e-04,0.9413333535194397,0.36989882588386536,0.36989882588386536
876,1.0,0.00022753058874513954,0.00022753058874513954,1e-04,0.9413333535194397,0.369912326335907,0.369912326335907
877,1.0,0.00022726922179572284,0.00022726922179572284,1e-04,0.9413333535194397,0.3699546754360199,0.3699546754360199
878,1.0,0.00022702376008965075,0.00022702376008965075,1e-04,0.9413333535194397,0.3700009286403656,0.3700009286403656
879,1.0,0.00022674552747048438,0.00022674552747048438,1e-04,0.9413333535194397,0.37000593543052673,0.37000593543052673
880,1.0,0.00022653451014775783,0.00022653451014775783,1e-04,0.9413333535194397,0.36995333433151245,0.36995333433151245
881,1.0,0.0002262703637825325,0.0002262703637825325,1e-04,0.9411110877990723,0.3699721395969391,0.3699721395969391
882,1.0,0.0002260189939988777,0.0002260189939988777,1e-04,0.9411110877990723,0.36990886926651,0.36990886926651
883,1.0,0.00022577076742891222,0.00022577076742891222,1e-04,0.9411110877990723,0.36992147564888,0.36992147564888
884,1.0,0.00022551727306563407,0.00022551727306563407,1e-04,0.9411110877990723,0.36994704604148865,0.36994704604148865
885,1.0,0.00022529164562001824,0.00022529164562001824,1e-04,0.9411110877990723,0.36995619535446167,0.36995619535446167
886,1.0,0.0002250274847028777,0.0002250274847028777,1e-04,0.9411110877990723,0.3699550926685333,0.3699550926685333
887,1.0,0.00022477300080936402,0.00022477300080936402,1e-04,0.9411110877990723,0.36999234557151794,0.36999234557151794
888,1.0,0.00022455808357335627,0.00022455808357335627,1e-04,0.9411110877990723,0.3701113760471344,0.3701113760471344
889,1.0,0.0002243131457362324,0.0002243131457362324,1e-04,0.9411110877990723,0.37009531259536743,0.37009531259536743
890,1.0,0.00022409427037928253,0.00022409427037928253,1e-04,0.9411110877990723,0.37002459168434143,0.37002459168434143
891,1.0,0.00022387747594621032,0.00022387747594621032,1e-04,0.9411110877990723,0.3700162172317505,0.3700162172317505
892,1.0,0.00022361781157087535,0.00022361781157087535,1e-04,0.9411110877990723,0.3700859248638153,0.3700859248638153
893,1.0,0.00022337597329169512,0.00022337597329169512,1e-04,0.9411110877990723,0.37009701132774353,0.37009701132774353
894,1.0,0.00022313061344902962,0.00022313061344902962,1e-04,0.9411110877990723,0.37011194229125977,0.37011194229125977
895,1.0,0.00022289184562396258,0.00022289184562396258,1e-04,0.9411110877990723,0.37012743949890137,0.37012743949890137
896,1.0,0.0002226444921689108,0.0002226444921689108,1e-04,0.9411110877990723,0.37018632888793945,0.37018632888793945
897,1.0,0.000222378148464486,0.000222378148464486,1e-04,0.9411110877990723,0.3702065348625183,0.3702065348625183
898,1.0,0.00022213970078155398,0.00022213970078155398,1e-04,0.9411110877990723,0.3702128529548645,0.3702128529548645
899,1.0,0.0002219159941887483,0.0002219159941887483,1e-04,0.9411110877990723,0.3702118992805481,0.3702118992805481
900,1.0,0.00022169134172145277,0.00022169134172145277,1e-04,0.9411110877990723,0.3701789677143097,0.3701789677143097
901,1.0,0.00022142790840007365,0.00022142790840007365,1e-04,0.9411110877990723,0.3701881766319275,0.3701881766319275
902,1.0,0.00022119921050034463,0.00022119921050034463,1e-04,0.9411110877990723,0.3702160716056824,0.3702160716056824
903,1.0,0.0002209709637099877,0.0002209709637099877,1e-04,0.9411110877990723,0.3702390491962433,0.3702390491962433
904,1.0,0.0002207370416726917,0.0002207370416726917,1e-04,0.9411110877990723,0.3703453540802002,0.3703453540802002
905,1.0,0.00022050205734558403,0.00022050205734558403,1e-04,0.9411110877990723,0.3703061044216156,0.3703061044216156
906,1.0,0.00022023635392542928,0.00022023635392542928,1e-04,0.9411110877990723,0.3702737092971802,0.3702737092971802
907,1.0,0.0002199685259256512,0.0002199685259256512,1e-04,0.9411110877990723,0.37022730708122253,0.37022730708122253
908,1.0,0.00021970152738504112,0.00021970152738504112,1e-04,0.9411110877990723,0.37017369270324707,0.37017369270324707
909,1.0,0.00021944470063317567,0.00021944470063317567,1e-04,0.9411110877990723,0.37019261717796326,0.37019261717796326
910,1.0,0.00021925248438492417,0.00021925248438492417,1e-04,0.9411110877990723,0.37019607424736023,0.37019607424736023
911,1.0,0.00021901971194893122,0.00021901971194893122,1e-04,0.9411110877990723,0.3701687157154083,0.3701687157154083
912,1.0,0.0002188014768762514,0.0002188014768762514,1e-04,0.9411110877990723,0.370205283164978,0.370205283164978
913,1.0,0.0002185151242883876,0.0002185151242883876,1e-04,0.9411110877990723,0.37027567625045776,0.37027567625045776
914,1.0,0.0002182770986109972,0.0002182770986109972,1e-04,0.9411110877990723,0.37029707431793213,0.37029707431793213
915,1.0,0.00021805550204589963,0.00021805550204589963,1e-04,0.9411110877990723,0.3703177571296692,0.3703177571296692
916,1.0,0.00021780729002784938,0.00021780729002784938,1e-04,0.9411110877990723,0.3703464865684509,0.3703464865684509
917,1.0,0.00021758806542493403,0.00021758806542493403,1e-04,0.9411110877990723,0.37031108140945435,0.37031108140945435
918,1.0,0.00021736651251558214,0.00021736651251558214,1e-04,0.9411110877990723,0.3703804314136505,0.3703804314136505
919,1.0,0.00021712013403885067,0.00021712013403885067,1e-04,0.9411110877990723,0.3704379200935364,0.3704379200935364
920,1.0,0.0002168794599128887,0.0002168794599128887,1e-04,0.9411110877990723,0.3704744875431061,0.3704744875431061
921,1.0,0.00021667791588697582,0.00021667791588697582,1e-04,0.9411110877990723,0.3705342411994934,0.3705342411994934
922,1.0,0.00021646442473866045,0.00021646442473866045,1e-04,0.9411110877990723,0.37056514620780945,0.37056514620780945
923,1.0,0.00021620717598125339,0.00021620717598125339,1e-04,0.9411110877990723,0.37057381868362427,0.37057381868362427
924,1.0,0.000215986801777035,0.000215986801777035,1e-04,0.9411110877990723,0.37056124210357666,0.37056124210357666
925,1.0,0.00021575218124780804,0.00021575218124780804,1e-04,0.9411110877990723,0.3705657720565796,0.3705657720565796
926,1.0,0.00021549247321672738,0.00021549247321672738,1e-04,0.9411110877990723,0.37061744928359985,0.37061744928359985
927,1.0,0.0002152902161469683,0.0002152902161469683,1e-04,0.9411110877990723,0.3706878423690796,0.3706878423690796
928,1.0,0.00021505886979866773,0.00021505886979866773,1e-04,0.9411110877990723,0.3706829249858856,0.3706829249858856
929,1.0,0.00021482439478859305,0.00021482439478859305,1e-04,0.9411110877990723,0.3706178069114685,0.3706178069114685
930,1.0,0.00021458306582644582,0.00021458306582644582,1e-04,0.9411110877990723,0.37064501643180847,0.37064501643180847
931,1.0,0.0002143441088264808,0.0002143441088264808,1e-04,0.9411110877990723,0.3706619143486023,0.3706619143486023
932,1.0,0.00021408610336948186,0.00021408610336948186,1e-04,0.9411110877990723,0.37064674496650696,0.37064674496650696
933,1.0,0.00021389930043369532,0.00021389930043369532,1e-04,0.9411110877990723,0.370621919631958,0.370621919631958
934,1.0,0.0002136503317160532,0.0002136503317160532,1e-04,0.9411110877990723,0.37071892619132996,0.37071892619132996
935,1.0,0.00021339442173484713,0.00021339442173484713,1e-04,0.9411110877990723,0.3707418739795685,0.3707418739795685
936,1.0,0.00021317139908205718,0.00021317139908205718,1e-04,0.9411110877990723,0.3706926107406616,0.3706926107406616
937,1.0,0.000212944156373851,0.000212944156373851,1e-04,0.9411110877990723,0.37067779898643494,0.37067779898643494
938,1.0,0.000212673912756145,0.000212673912756145,1e-04,0.9411110877990723,0.3706575930118561,0.3706575930118561
939,1.0,0.00021242833463475108,0.00021242833463475108,1e-04,0.9411110877990723,0.37071922421455383,0.37071922421455383
940,1.0,0.0002121685683960095,0.0002121685683960095,1e-04,0.9411110877990723,0.37075015902519226,0.37075015902519226
941,1.0,0.00021193845896050334,0.00021193845896050334,1e-04,0.9411110877990723,0.3707825541496277,0.3707825541496277
942,1.0,0.00021175091387704015,0.00021175091387704015,1e-04,0.9411110877990723,0.3707464635372162,0.3707464635372162
943,1.0,0.00021153411944396794,0.00021153411944396794,1e-04,0.9411110877990723,0.3706623315811157,0.3706623315811157
944,1.0,0.00021131380344741046,0.00021131380344741046,1e-04,0.9411110877990723,0.37059420347213745,0.37059420347213745
945,1.0,0.00021108986402396113,0.00021108986402396113,1e-04,0.9411110877990723,0.37059175968170166,0.37059175968170166
946,1.0,0.0002109054330503568,0.0002109054330503568,1e-04,0.9411110877990723,0.37065356969833374,0.37065356969833374
947,1.0,0.00021070150251034647,0.00021070150251034647,1e-04,0.9411110877990723,0.370662659406662,0.370662659406662
948,1.0,0.00021044514141976833,0.00021044514141976833,1e-04,0.9411110877990723,0.3706941604614258,0.3706941604614258
949,1.0,0.00021023783483542502,0.00021023783483542502,1e-04,0.9411110877990723,0.3707329034805298,0.3707329034805298
950,1.0,0.0002100038545904681,0.0002100038545904681,1e-04,0.9411110877990723,0.37070807814598083,0.37070807814598083
951,1.0,0.00020975676306989044,0.00020975676306989044,1e-04,0.9411110877990723,0.3707086443901062,0.3707086443901062
952,1.0,0.00020951780606992543,0.00020951780606992543,1e-04,0.9411110877990723,0.37063512206077576,0.37063512206077576
953,1.0,0.00020929606398567557,0.00020929606398567557,1e-04,0.9411110877990723,0.37073180079460144,0.37073180079460144
954,1.0,0.00020906155987177044,0.00020906155987177044,1e-04,0.9411110877990723,0.3708344101905823,0.3708344101905823
955,1.0,0.00020883468096144497,0.00020883468096144497,1e-04,0.9411110877990723,0.37090712785720825,0.37090712785720825
956,1.0,0.0002086188760586083,0.0002086188760586083,1e-04,0.9411110877990723,0.370831698179245,0.370831698179245
957,1.0,0.00020839709031861275,0.00020839709031861275,1e-04,0.9411110877990723,0.37080496549606323,0.37080496549606323
958,1.0,0.0002082019782392308,0.0002082019782392308,1e-04,0.9411110877990723,0.3707808554172516,0.3707808554172516
959,1.0,0.00020799449703190476,0.00020799449703190476,1e-04,0.9411110877990723,0.3708222210407257,0.3708222210407257
960,1.0,0.0002077471581287682,0.0002077471581287682,1e-04,0.9413333535194397,0.3708840608596802,0.3708840608596802
961,1.0,0.00020751319243572652,0.00020751319243572652,1e-04,0.9413333535194397,0.3709411025047302,0.3709411025047302
962,1.0,0.00020732586563099176,0.00020732586563099176,1e-04,0.9413333535194397,0.37094777822494507,0.37094777822494507
963,1.0,0.00020709096861537546,0.00020709096861537546,1e-04,0.9415555596351624,0.37089571356773376,0.37089571356773376
964,1.0,0.00020687843789346516,0.00020687843789346516,1e-04,0.9415555596351624,0.37088543176651,0.37088543176651
965,1.0,0.0002066969173029065,0.0002066969173029065,1e-04,0.9415555596351624,0.37093207240104675,0.37093207240104675
966,1.0,0.00020649246289394796,0.00020649246289394796,1e-04,0.9415555596351624,0.3709243834018707,0.3709243834018707
967,1.0,0.00020624208264052868,0.00020624208264052868,1e-04,0.9415555596351624,0.37097540497779846,0.37097540497779846
968,1.0,0.00020604075689334422,0.00020604075689334422,1e-04,0.9415555596351624,0.37097248435020447,0.37097248435020447
969,1.0,0.00020583988225553185,0.00020583988225553185,1e-04,0.9415555596351624,0.3710365295410156,0.3710365295410156
970,1.0,0.0002056006487691775,0.0002056006487691775,1e-04,0.9415555596351624,0.371119886636734,0.371119886636734
971,1.0,0.00020531709014903754,0.00020531709014903754,1e-04,0.9415555596351624,0.37105685472488403,0.37105685472488403
972,1.0,0.00020512369519565254,0.00020512369519565254,1e-04,0.9415555596351624,0.37109723687171936,0.37109723687171936
973,1.0,0.00020488158043008298,0.00020488158043008298,1e-04,0.9415555596351624,0.37114837765693665,0.37114837765693665
974,1.0,0.0002046750159934163,0.0002046750159934163,1e-04,0.9415555596351624,0.3711293339729309,0.3711293339729309
975,1.0,0.0002043926651822403,0.0002043926651822403,1e-04,0.9415555596351624,0.3711581230163574,0.3711581230163574
976,1.0,0.00020419231441337615,0.00020419231441337615,1e-04,0.9415555596351624,0.37108612060546875,0.37108612060546875
977,1.0,0.00020396501349750906,0.00020396501349750906,1e-04,0.9415555596351624,0.37108004093170166,0.37108004093170166
978,1.0,0.0002037636877503246,0.0002037636877503246,1e-04,0.9415555596351624,0.3711355924606323,0.3711355924606323
979,1.0,0.00020358883193694055,0.00020358883193694055,1e-04,0.9415555596351624,0.3711881935596466,0.371188223361969
980,1.0,0.00020338322792667896,0.00020338322792667896,1e-04,0.9413333535194397,0.3712347149848938,0.3712347149848938
981,1.0,0.00020313897402957082,0.00020313897402957082,1e-04,0.9413333535194397,0.37128573656082153,0.37128573656082153
982,1.0,0.00020291260443627834,0.00020291260443627834,1e-04,0.9413333535194397,0.37127435207366943,0.37127435207366943
983,1.0,0.00020272676192689687,0.00020272676192689687,1e-04,0.9413333535194397,0.3712586462497711,0.3712586462497711
984,1.0,0.00020250304078217596,0.00020250304078217596,1e-04,0.9413333535194397,0.3712621331214905,0.3712621331214905
985,1.0,0.00020228787616360933,0.00020228787616360933,1e-04,0.9413333535194397,0.3712140619754791,0.3712140619754791
986,1.0,0.00020206724002491683,0.00020206724002491683,1e-04,0.9413333535194397,0.3712218105792999,0.3712218105792999
987,1.0,0.00020186569599900395,0.00020186569599900395,1e-04,0.9413333535194397,0.3712769150733948,0.3712769150733948
988,1.0,0.00020166272588539869,0.00020166272588539869,1e-04,0.9413333535194397,0.37132805585861206,0.37132805585861206
989,1.0,0.00020145351300016046,0.00020145351300016046,1e-04,0.9413333535194397,0.37133336067199707,0.37133336067199707
990,1.0,0.00020122763817198575,0.00020122763817198575,1e-04,0.9413333535194397,0.37130650877952576,0.37130650877952576
991,1.0,0.00020101321570109576,0.00020101321570109576,1e-04,0.9413333535194397,0.3713482916355133,0.3713482916355133
992,1.0,0.00020080353715457022,0.00020080353715457022,1e-04,0.9413333535194397,0.37133267521858215,0.37133267521858215
993,1.0,0.00020060599490534514,0.00020060599490534514,1e-04,0.9413333535194397,0.3713621497154236,0.3713621497154236
994,1.0,0.0002003865665756166,0.0002003865665756166,1e-04,0.9413333535194397,0.3713223934173584,0.3713223934173584
995,1.0,0.0002001823449973017,0.0002001823449973017,1e-04,0.9413333535194397,0.37132376432418823,0.37132376432418823
996,1.0,0.00019996031187474728,0.00019996031187474728,1e-04,0.9413333535194397,0.3712790906429291,0.3712790906429291
997,1.0,0.00019977186457253993,0.00019977186457253993,1e-04,0.9413333535194397,0.3712908923625946,0.3712908923625946
998,1.0,0.00019954836170654744,0.00019954836170654744,1e-04,0.9413333535194397,0.3712836802005768,0.3712836802005768
999,1.0,0.00019932413124479353,0.00019932413124479353,1e-04,0.9413333535194397,0.3713168799877167,0.3713168799877167
