epoch,accuracy,categorical_crossentropy,loss,lr,val_accuracy,val_categorical_crossentropy,val_loss
0,0.03799999877810478,2.096515655517578,2.096515655517578,0.001,0.03888889029622078,1.5986322164535522,1.5986322164535522
1,0.5960000157356262,1.0782039165496826,1.0782039165496826,0.001,0.21044445037841797,1.5953747034072876,1.5953747034072876
2,0.9020000100135803,0.5490051507949829,0.5490051507949829,0.001,0.35333332419395447,1.593022108078003,1.593022108078003
3,0.906000018119812,0.4123150408267975,0.4123150408267975,0.001,0.35333332419395447,1.5915465354919434,1.5915465354919434
4,0.9240000247955322,0.32914167642593384,0.32914167642593384,0.001,0.35333332419395447,1.5899152755737305,1.5899152755737305
5,0.9340000152587891,0.2996031939983368,0.2996031939983368,0.001,0.35333332419395447,1.5875917673110962,1.5875917673110962
6,0.9359999895095825,0.28266099095344543,0.28266099095344543,0.001,0.35333332419395447,1.5845534801483154,1.5845534801483154
7,0.9359999895095825,0.26507604122161865,0.26507604122161865,0.001,0.35333332419395447,1.581026315689087,1.581026315689087
8,0.9359999895095825,0.25244778394699097,0.25244778394699097,0.001,0.35333332419395447,1.5774139165878296,1.5774139165878296
9,0.9359999895095825,0.2433311641216278,0.2433311641216278,0.001,0.35333332419395447,1.574069857597351,1.574069857597351
10,0.9359999895095825,0.23454143106937408,0.23454143106937408,0.001,0.35333332419395447,1.5710965394973755,1.5710965394973755
11,0.9380000233650208,0.22718173265457153,0.22718173265457153,0.001,0.35333332419395447,1.5683752298355103,1.5683752298355103
12,0.9380000233650208,0.22115638852119446,0.22115638852119446,0.001,0.35333332419395447,1.5658808946609497,1.5658808946609497
13,0.9380000233650208,0.21447545289993286,0.21447545289993286,0.001,0.35333332419395447,1.5635838508605957,1.5635838508605957
14,0.9380000233650208,0.20797641575336456,0.20797641575336456,0.001,0.35333332419395447,1.5616275072097778,1.5616275072097778
15,0.9380000233650208,0.20272588729858398,0.20272588729858398,0.001,0.35333332419395447,1.560193657875061,1.560193657875061
16,0.9399999976158142,0.19832715392112732,0.19832715392112732,0.001,0.35333332419395447,1.5593860149383545,1.5593860149383545
17,0.9419999718666077,0.19378900527954102,0.19378900527954102,0.001,0.35333332419395447,1.5591994524002075,1.5591994524002075
18,0.9419999718666077,0.18883179128170013,0.18883179128170013,0.001,0.35333332419395447,1.5595319271087646,1.5595319271087646
19,0.9419999718666077,0.18394821882247925,0.18394821882247925,0.001,0.35333332419395447,1.5602401494979858,1.5602401494979858
20,0.9459999799728394,0.1794366091489792,0.1794366091489792,0.001,0.35333332419395447,1.5611482858657837,1.5611482858657837
21,0.9520000219345093,0.17465350031852722,0.17465350031852722,0.001,0.35333332419395447,1.5621517896652222,1.5621517896652222
22,0.9520000219345093,0.16958853602409363,0.16958853602409363,0.001,0.35333332419395447,1.563329815864563,1.563329815864563
23,0.9520000219345093,0.16523049771785736,0.16523049771785736,0.001,0.35333332419395447,1.564805507659912,1.564805507659912
24,0.9520000219345093,0.16093531250953674,0.16093531250953674,0.001,0.35333332419395447,1.566688060760498,1.566688060760498
25,0.9539999961853027,0.15656647086143494,0.15656647086143494,0.001,0.35333332419395447,1.5688083171844482,1.5688083171844482
26,0.9539999961853027,0.15283040702342987,0.15283040702342987,0.001,0.35333332419395447,1.5710649490356445,1.5710649490356445
27,0.9559999704360962,0.1484963595867157,0.1484963595867157,0.001,0.35333332419395447,1.573519229888916,1.573519229888916
28,0.9559999704360962,0.14436568319797516,0.14436568319797516,0.001,0.35333332419395447,1.5763009786605835,1.5763009786605835
29,0.9559999704360962,0.14025050401687622,0.14025050401687622,0.001,0.35333332419395447,1.5792722702026367,1.5792722702026367
30,0.9599999785423279,0.13603883981704712,0.13603883981704712,0.001,0.35333332419395447,1.582201361656189,1.582201361656189
31,0.9599999785423279,0.13222812116146088,0.13222812116146088,0.001,0.35333332419395447,1.5851819515228271,1.5851819515228271
32,0.9620000123977661,0.12811771035194397,0.12811771035194397,0.001,0.35333332419395447,1.5882660150527954,1.5882660150527954
33,0.9599999785423279,0.12471286207437515,0.12471286207437515,0.001,0.35333332419395447,1.5914491415023804,1.5914491415023804
34,0.9620000123977661,0.1210603266954422,0.1210603266954422,0.001,0.35333332419395447,1.595234751701355,1.595234751701355
35,0.9660000205039978,0.11740512400865555,0.11740512400865555,0.001,0.35333332419395447,1.5986770391464233,1.5986770391464233
36,0.9639999866485596,0.11408574134111404,0.11408574134111404,0.001,0.35333332419395447,1.602601408958435,1.602601408958435
37,0.972000002861023,0.11206463724374771,0.11206463724374771,0.001,0.35333332419395447,1.6048825979232788,1.6048825979232788
38,0.9580000042915344,0.119455486536026,0.119455486536026,0.001,0.35333332419395447,1.6100040674209595,1.6100040674209595
39,0.9700000286102295,0.10588855296373367,0.10588855296373367,0.001,0.35333332419395447,1.6160415410995483,1.6160415410995483
40,0.9679999947547913,0.15029707551002502,0.15029707551002502,0.001,0.35333332419395447,1.6112076044082642,1.6112076044082642
41,0.9520000219345093,0.16239681839942932,0.16239681839942932,0.001,0.35333332419395447,1.609250545501709,1.609250545501709
42,0.9440000057220459,0.18455751240253448,0.18455751240253448,0.001,0.35333332419395447,1.610241413116455,1.610241413116455
43,0.9480000138282776,0.1782425343990326,0.1782425343990326,0.001,0.35333332419395447,1.612552285194397,1.612552285194397
44,0.9459999799728394,0.1729394942522049,0.1729394942522049,0.001,0.35333332419395447,1.6155158281326294,1.6155158281326294
45,0.9480000138282776,0.16462674736976624,0.16462674736976624,0.001,0.35333332419395447,1.6188980340957642,1.6188980340957642
46,0.9559999704360962,0.1539250612258911,0.1539250612258911,0.001,0.35333332419395447,1.6226897239685059,1.6226897239685059
47,0.9599999785423279,0.1453244984149933,0.1453244984149933,0.001,0.35333332419395447,1.6268038749694824,1.6268038749694824
48,0.9580000042915344,0.1414317786693573,0.1414317786693573,0.001,0.35333332419395447,1.6311231851577759,1.6311231851577759
49,0.9620000123977661,0.13746535778045654,0.13746535778045654,0.001,0.35333332419395447,1.6350773572921753,1.6350773572921753
50,0.9639999866485596,0.13490718603134155,0.13490718603134155,0.001,0.35333332419395447,1.6380387544631958,1.6380387544631958
51,0.9599999785423279,0.13350322842597961,0.13350322842597961,0.001,0.35422220826148987,1.639817476272583,1.639817476272583
52,0.9620000123977661,0.1293422281742096,0.1293422281742096,0.001,0.2944444417953491,1.6406183242797852,1.6406183242797852
53,0.9599999785423279,0.12464693933725357,0.12464693933725357,0.001,0.02311111055314541,1.64106285572052,1.64106285572052
54,0.9620000123977661,0.12102782726287842,0.12102782726287842,0.001,0.018888888880610466,1.6415497064590454,1.6415497064590454
55,0.9639999866485596,0.11737947165966034,0.11737947165966034,0.001,0.019111111760139465,1.642264485359192,1.642264485359192
56,0.9639999866485596,0.11321558058261871,0.11321558058261871,0.001,0.019111111760139465,1.6430386304855347,1.6430386304855347
57,0.9660000205039978,0.10982958972454071,0.10982958972454071,0.001,0.019111111760139465,1.6436060667037964,1.6436060667037964
58,0.9660000205039978,0.10749705135822296,0.10749705135822296,0.001,0.019111111760139465,1.643592119216919,1.643592119216919
59,0.9700000286102295,0.10402501374483109,0.10402501374483109,0.001,0.019111111760139465,1.6433874368667603,1.6433874368667603
60,0.9700000286102295,0.09965457767248154,0.09965457767248154,0.001,0.019111111760139465,1.6432154178619385,1.6432154178619385
61,0.9700000286102295,0.09623540937900543,0.09623540937900543,0.001,0.019111111760139465,1.6432991027832031,1.6432991027832031
62,0.9700000286102295,0.09348305314779282,0.09348305314779282,0.001,0.019111111760139465,1.643642544746399,1.643642544746399
63,0.9739999771118164,0.09107989072799683,0.09107989072799683,0.001,0.019111111760139465,1.644063115119934,1.644063115119934
64,0.9739999771118164,0.08850967884063721,0.08850967884063721,0.001,0.019111111760139465,1.644450306892395,1.644450306892395
65,0.972000002861023,0.08540177345275879,0.08540177345275879,0.001,0.019333332777023315,1.6446038484573364,1.6446038484573364
66,0.972000002861023,0.08276597410440445,0.08276597410440445,0.001,0.02133333310484886,1.6443753242492676,1.6443753242492676
67,0.972000002861023,0.08071961253881454,0.08071961253881454,0.001,0.025777777656912804,1.6437804698944092,1.6437804698944092
68,0.972000002861023,0.07816918939352036,0.07816918939352036,0.0005,0.02800000086426735,1.64448881149292,1.64448881149292
69,0.9739999771118164,0.0768267884850502,0.0768267884850502,0.0005,0.030444445088505745,1.6452525854110718,1.6452525854110718
70,0.9739999771118164,0.07546548545360565,0.07546548545360565,0.0005,0.03133333474397659,1.6462514400482178,1.6462514400482178
71,0.9739999771118164,0.0740155503153801,0.0740155503153801,0.0005,0.03444444388151169,1.6474474668502808,1.6474474668502808
72,0.9739999771118164,0.07238984107971191,0.07238984107971191,0.0005,0.03844444453716278,1.6487897634506226,1.6487897634506226
73,0.9739999771118164,0.0708799958229065,0.0708799958229065,0.0005,0.04399999976158142,1.6501446962356567,1.6501446962356567
74,0.9760000109672546,0.06973937153816223,0.06973937153816223,0.0005,0.05444444343447685,1.651355266571045,1.651355266571045
75,0.9760000109672546,0.06860972195863724,0.06860972195863724,0.0005,0.06977777928113937,1.6523773670196533,1.6523773670196533
76,0.9760000109672546,0.06721083074808121,0.06721083074808121,0.0005,0.10711111128330231,1.653178334236145,1.653178334236145
77,0.9760000109672546,0.06581203639507294,0.06581203639507294,0.0005,0.1617777794599533,1.6538819074630737,1.6538819074630737
78,0.9779999852180481,0.0645403265953064,0.0645403265953064,0.0005,0.24222221970558167,1.654738426208496,1.654738426208496
79,0.9779999852180481,0.0632195845246315,0.0632195845246315,0.0005,0.29955556988716125,1.6556504964828491,1.6556504964828491
80,0.9779999852180481,0.06194838881492615,0.06194838881492615,0.0005,0.33000001311302185,1.656624436378479,1.656624436378479
81,0.9779999852180481,0.06071336567401886,0.06071336567401886,0.0005,0.33977776765823364,1.657645344734192,1.657645344734192
82,0.9779999852180481,0.05946385860443115,0.05946385860443115,0.0005,0.3471111059188843,1.6583679914474487,1.6583679914474487
83,0.9800000190734863,0.05827442556619644,0.05827442556619644,0.0005,0.3499999940395355,1.6589394807815552,1.6589394807815552
84,0.9800000190734863,0.05692888796329498,0.05692888796329498,0.0005,0.35155555605888367,1.6593984365463257,1.6593984365463257
85,0.984000027179718,0.05562155693769455,0.05562155693769455,0.0005,0.3531111180782318,1.6598515510559082,1.6598515510559082
86,0.984000027179718,0.0544646680355072,0.0544646680355072,0.0005,0.35333332419395447,1.6603425741195679,1.6603425741195679
87,0.9860000014305115,0.053187597543001175,0.053187597543001175,0.0005,0.35333332419395447,1.6609336137771606,1.6609336137771606
88,0.9860000014305115,0.05202321708202362,0.05202321708202362,0.0005,0.35333332419395447,1.661347508430481,1.661347508430481
89,0.9860000014305115,0.05081549659371376,0.05081549659371376,0.0005,0.35333332419395447,1.6615029573440552,1.6615029573440552
90,0.9860000014305115,0.049566593021154404,0.049566593021154404,0.0005,0.35333332419395447,1.6615835428237915,1.6615835428237915
91,0.9860000014305115,0.04834397882223129,0.04834397882223129,0.0005,0.35333332419395447,1.6617017984390259,1.6617017984390259
92,0.9860000014305115,0.047157496213912964,0.047157496213912964,0.0005,0.35333332419395447,1.661975622177124,1.661975622177124
93,0.9860000014305115,0.04591280594468117,0.04591280594468117,0.0005,0.35333332419395447,1.6622740030288696,1.6622740030288696
94,0.9860000014305115,0.04471166431903839,0.04471166431903839,0.0005,0.35333332419395447,1.6622356176376343,1.6622356176376343
95,0.9860000014305115,0.04347483441233635,0.04347483441233635,0.0005,0.35333332419395447,1.662014126777649,1.662014126777649
96,0.9879999756813049,0.042232025414705276,0.042232025414705276,0.0005,0.35333332419395447,1.661811351776123,1.661811351776123
97,0.9879999756813049,0.0410582572221756,0.0410582572221756,0.0005,0.35333332419395447,1.661852240562439,1.661852240562439
98,0.9900000095367432,0.03985581547021866,0.03985581547021866,0.0005,0.35333332419395447,1.661831259727478,1.661831259727478
99,0.9900000095367432,0.03867548704147339,0.03867548704147339,0.0005,0.35333332419395447,1.661597728729248,1.661597728729248
100,0.9900000095367432,0.03746068850159645,0.03746068850159645,0.0005,0.35333332419395447,1.6613496541976929,1.6613496541976929
101,0.9900000095367432,0.036292195320129395,0.036292195320129395,0.0005,0.35333332419395447,1.6613397598266602,1.6613397598266602
102,0.9919999837875366,0.03507385402917862,0.03507385402917862,0.0005,0.35333332419395447,1.6609973907470703,1.6609973907470703
103,0.9919999837875366,0.03390638902783394,0.03390638902783394,0.0005,0.35333332419395447,1.6603319644927979,1.6603319644927979
104,0.9919999837875366,0.032728713005781174,0.032728713005781174,0.0005,0.35333332419395447,1.6598130464553833,1.6598130464553833
105,0.9919999837875366,0.03154180943965912,0.03154180943965912,0.0005,0.35333332419395447,1.6596908569335938,1.6596908569335938
106,0.9940000176429749,0.030360247939825058,0.030360247939825058,0.0005,0.35333332419395447,1.6591050624847412,1.6591050624847412
107,0.9940000176429749,0.02917572483420372,0.02917572483420372,0.0005,0.35333332419395447,1.658684253692627,1.658684253692627
108,0.9940000176429749,0.028010079637169838,0.028010079637169838,0.0005,0.35333332419395447,1.658560872077942,1.658560872077942
109,0.9959999918937683,0.026850851252675056,0.026850851252675056,0.0005,0.35333332419395447,1.65794837474823,1.65794837474823
110,0.9959999918937683,0.025743898004293442,0.025743898004293442,0.0005,0.35333332419395447,1.6574674844741821,1.6574674844741821
111,0.9959999918937683,0.02468818798661232,0.02468818798661232,0.0005,0.35333332419395447,1.6568419933319092,1.6568419933319092
112,0.9959999918937683,0.02371828258037567,0.02371828258037567,0.0005,0.35333332419395447,1.6565710306167603,1.6565710306167603
113,0.9980000257492065,0.02291613258421421,0.02291613258421421,0.0005,0.35333332419395447,1.6546803712844849,1.6546803712844849
114,0.9959999918937683,0.02252902463078499,0.02252902463078499,0.0005,0.35333332419395447,1.6550110578536987,1.6550110578536987
115,1.0,0.022184353321790695,0.022184353321790695,0.0005,0.35333332419395447,1.651944637298584,1.651944637298584
116,0.9940000176429749,0.022971471771597862,0.022971471771597862,0.0005,0.35333332419395447,1.6521331071853638,1.6521331071853638
117,1.0,0.02040702849626541,0.02040702849626541,0.0005,0.35333332419395447,1.6504020690917969,1.6504020690917969
118,1.0,0.018205588683485985,0.018205588683485985,0.00025,0.35333332419395447,1.6493335962295532,1.6493335962295532
119,1.0,0.017647046595811844,0.017647046595811844,0.00025,0.35333332419395447,1.648691177368164,1.648691177368164
120,1.0,0.017123650759458542,0.017123650759458542,0.00025,0.35333332419395447,1.6484642028808594,1.6484642028808594
121,1.0,0.01679215393960476,0.01679215393960476,0.00025,0.35333332419395447,1.6480456590652466,1.6480456590652466
122,1.0,0.016095392405986786,0.016095392405986786,0.00025,0.35333332419395447,1.64729905128479,1.64729905128479
123,1.0,0.01585317775607109,0.01585317775607109,0.00025,0.35333332419395447,1.647018313407898,1.647018313407898
124,1.0,0.01513991691172123,0.01513991691172123,0.00025,0.35333332419395447,1.6470632553100586,1.6470632553100586
125,1.0,0.014895031228661537,0.014895031228661537,0.00025,0.35333332419395447,1.6467375755310059,1.6467375755310059
126,1.0,0.014270988292992115,0.014270988292992115,0.00025,0.35333332419395447,1.6461275815963745,1.6461275815963745
127,1.0,0.013979341834783554,0.013979341834783554,0.00025,0.35333332419395447,1.6458746194839478,1.6458746194839478
128,1.0,0.013430911116302013,0.013430911116302013,0.00025,0.35333332419395447,1.6458028554916382,1.6458028554916382
129,1.0,0.013109615072607994,0.013109615072607994,0.00025,0.35333332419395447,1.6452993154525757,1.6452993154525757
130,1.0,0.012615138664841652,0.012615138664841652,0.00025,0.35333332419395447,1.6448209285736084,1.6448209285736084
131,1.0,0.012285353615880013,0.012285353615880013,0.00025,0.35333332419395447,1.6447315216064453,1.6447315216064453
132,1.0,0.011856538243591785,0.011856538243591785,0.00025,0.35333332419395447,1.6445727348327637,1.6445727348327637
133,1.0,0.011507861316204071,0.011507861316204071,0.00025,0.35333332419395447,1.643965721130371,1.643965721130371
134,1.0,0.011140932328999043,0.011140932328999043,0.00025,0.35333332419395447,1.6436865329742432,1.6436865329742432
135,1.0,0.010766534134745598,0.010766534134745598,0.00025,0.35333332419395447,1.64372980594635,1.64372980594635
136,1.0,0.010469463653862476,0.010469463653862476,0.00025,0.35333332419395447,1.6433215141296387,1.6433215141296387
137,1.0,0.01008096057921648,0.01008096057921648,0.00025,0.35333332419395447,1.6427603960037231,1.6427603960037231
138,1.0,0.009842473082244396,0.009842473082244396,0.00025,0.35333332419395447,1.6425939798355103,1.6425939798355103
139,1.0,0.009471357800066471,0.009471357800066471,0.00025,0.35333332419395447,1.6423524618148804,1.6423524618148804
140,1.0,0.009245328605175018,0.009245328605175018,0.00025,0.35333332419395447,1.6417604684829712,1.6417604684829712
141,1.0,0.008916870690882206,0.008916870690882206,0.00025,0.35333332419395447,1.6411842107772827,1.6411842107772827
142,1.0,0.008679619990289211,0.008679619990289211,0.00025,0.35333332419395447,1.6407670974731445,1.6407670974731445
143,1.0,0.008413204923272133,0.008413204923272133,0.00025,0.35333332419395447,1.6402252912521362,1.6402252912521362
144,1.0,0.008178088814020157,0.008178088814020157,0.00025,0.35333332419395447,1.6395989656448364,1.6395989656448364
145,1.0,0.007936629466712475,0.007936629466712475,0.00025,0.35333332419395447,1.6391922235488892,1.6391922235488892
146,1.0,0.007728214375674725,0.007728214375674725,0.00025,0.35333332419395447,1.6385284662246704,1.6385284662246704
147,1.0,0.0074784280732274055,0.0074784280732274055,0.00025,0.35333332419395447,1.6378933191299438,1.6378933191299438
148,1.0,0.007293877191841602,0.007293877191841602,0.00025,0.35333332419395447,1.6374930143356323,1.6374930143356323
149,1.0,0.007072551641613245,0.007072551641613245,0.00025,0.35333332419395447,1.6369121074676514,1.6369121074676514
150,1.0,0.0068915109150111675,0.0068915109150111675,0.00025,0.35333332419395447,1.6362556219100952,1.6362556219100952
151,1.0,0.006706250831484795,0.006706250831484795,0.00025,0.35333332419395447,1.635689616203308,1.635689616203308
152,1.0,0.006535727065056562,0.006535727065056562,0.00025,0.35333332419395447,1.6351112127304077,1.6351110935211182
153,1.0,0.006349991541355848,0.006349991541355848,0.00025,0.35333332419395447,1.634293556213379,1.634293556213379
154,1.0,0.006204488221555948,0.006204488221555948,0.00025,0.35333332419395447,1.633794903755188,1.633794903755188
155,1.0,0.006039928644895554,0.006039928644895554,0.00025,0.35333332419395447,1.6330487728118896,1.6330487728118896
156,1.0,0.005891932640224695,0.005891932640224695,0.00025,0.35333332419395447,1.6323033571243286,1.6323033571243286
157,1.0,0.005742782261222601,0.005742782261222601,0.00025,0.35333332419395447,1.631587266921997,1.631587266921997
158,1.0,0.0056135160848498344,0.0056135160848498344,0.00025,0.35333332419395447,1.6306414604187012,1.6306414604187012
159,1.0,0.005467474460601807,0.005467474460601807,0.00025,0.35333332419395447,1.6297589540481567,1.6297589540481567
160,1.0,0.005343270488083363,0.005343270488083363,0.00025,0.35333332419395447,1.6289926767349243,1.6289926767349243
161,1.0,0.005218444857746363,0.005218444857746363,0.00025,0.35333332419395447,1.628050684928894,1.628050684928894
162,1.0,0.005103477742522955,0.005103477742522955,0.00025,0.35333332419395447,1.627191185951233,1.627191185951233
163,1.0,0.004981451202183962,0.004981451202183962,0.00025,0.35333332419395447,1.626221776008606,1.626221776008606
164,1.0,0.004875538870692253,0.004875538870692253,0.00025,0.35333332419395447,1.6252861022949219,1.6252861022949219
165,1.0,0.004764544311910868,0.004764544311910868,0.00025,0.35333332419395447,1.6243174076080322,1.6243174076080322
166,1.0,0.004664178006350994,0.004664178006350994,0.00025,0.35333332419395447,1.6234166622161865,1.6234166622161865
167,1.0,0.004563451744616032,0.004563451744616032,0.00025,0.35333332419395447,1.6226245164871216,1.6226245164871216
168,1.0,0.004469050094485283,0.004469050094485283,0.000125,0.35333332419395447,1.6218478679656982,1.6218478679656982
169,1.0,0.004420011304318905,0.004420011304318905,0.000125,0.35333332419395447,1.621126651763916,1.621126651763916
170,1.0,0.004375074058771133,0.004375074058771133,0.000125,0.35333332419395447,1.6203687191009521,1.6203687191009521
171,1.0,0.004331821575760841,0.004331821575760841,0.000125,0.35333332419395447,1.6195837259292603,1.6195837259292603
172,1.0,0.004286492709070444,0.004286492709070444,0.000125,0.35333332419395447,1.6188840866088867,1.6188840866088867
173,1.0,0.004243943840265274,0.004243943840265274,0.000125,0.35333332419395447,1.6181364059448242,1.6181364059448242
174,1.0,0.004202782642096281,0.004202782642096281,0.000125,0.35333332419395447,1.6174027919769287,1.6174027919769287
175,1.0,0.004160664044320583,0.004160664044320583,0.000125,0.35333332419395447,1.6166112422943115,1.6166112422943115
176,1.0,0.00412078108638525,0.00412078108638525,0.000125,0.35333332419395447,1.615820288658142,1.615820288658142
177,1.0,0.0040819053538143635,0.0040819053538143635,0.000125,0.35333332419395447,1.6151008605957031,1.6151008605957031
178,1.0,0.004042543470859528,0.004042543470859528,0.000125,0.35333332419395447,1.6142802238464355,1.6142802238464355
179,1.0,0.00400488032028079,0.00400488032028079,0.000125,0.35333332419395447,1.6134361028671265,1.6134361028671265
180,1.0,0.0039673796854913235,0.0039673796854913235,0.000125,0.35333332419395447,1.612577199935913,1.612577199935913
181,1.0,0.003930613864213228,0.003930613864213228,0.000125,0.35333332419395447,1.6117984056472778,1.6117984056472778
182,1.0,0.003894129069522023,0.003894129069522023,0.000125,0.35333332419395447,1.6109095811843872,1.6109095811843872
183,1.0,0.003859069896861911,0.003859069896861911,0.000125,0.35333332419395447,1.6101279258728027,1.6101279258728027
184,1.0,0.0038233541417866945,0.0038233541417866945,0.000125,0.35333332419395447,1.6092736721038818,1.6092736721038818
185,1.0,0.0037888081278651953,0.0037888081278651953,0.000125,0.35333332419395447,1.608486294746399,1.608486294746399
186,1.0,0.0037558951880782843,0.0037558951880782843,0.000125,0.35333332419395447,1.6075634956359863,1.6075634956359863
187,1.0,0.003722675144672394,0.003722675144672394,0.000125,0.35333332419395447,1.6066848039627075,1.6066848039627075
188,1.0,0.0036900911945849657,0.0036900911945849657,0.000125,0.35333332419395447,1.6057497262954712,1.6057497262954712
189,1.0,0.0036572106182575226,0.0036572106182575226,0.000125,0.35333332419395447,1.6047747135162354,1.6047747135162354
190,1.0,0.0036263437941670418,0.0036263437941670418,0.000125,0.35333332419395447,1.6038316488265991,1.6038316488265991
191,1.0,0.0035955363418906927,0.0035955363418906927,0.000125,0.35333332419395447,1.6027960777282715,1.6027960777282715
192,1.0,0.0035649817436933517,0.0035649817436933517,0.000125,0.35333332419395447,1.6018606424331665,1.6018606424331665
193,1.0,0.003535138675943017,0.003535138675943017,0.000125,0.35333332419395447,1.6008645296096802,1.6008645296096802
194,1.0,0.0035053440369665623,0.0035053440369665623,0.000125,0.35333332419395447,1.5998756885528564,1.5998756885528564
195,1.0,0.0034753140062093735,0.0034753140062093735,0.000125,0.35333332419395447,1.5988363027572632,1.5988363027572632
196,1.0,0.0034471522085368633,0.0034471522085368633,0.000125,0.35333332419395447,1.5977426767349243,1.5977426767349243
197,1.0,0.003418395761400461,0.003418395761400461,0.000125,0.35333332419395447,1.5966596603393555,1.5966596603393555
198,1.0,0.0033906707540154457,0.0033906707540154457,0.000125,0.35333332419395447,1.5956215858459473,1.5956215858459473
199,1.0,0.0033638065215200186,0.0033638065215200186,0.000125,0.35333332419395447,1.594563364982605,1.594563364982605
200,1.0,0.0033369322773069143,0.0033369322773069143,0.000125,0.35333332419395447,1.5933836698532104,1.5933836698532104
201,1.0,0.0033095607068389654,0.0033095607068389654,0.000125,0.35333332419395447,1.5922422409057617,1.5922421216964722
202,1.0,0.0032833493314683437,0.0032833493314683437,0.000125,0.35333332419395447,1.5910719633102417,1.5910719633102417
203,1.0,0.0032571556512266397,0.0032571556512266397,0.000125,0.35333332419395447,1.589901089668274,1.589901089668274
204,1.0,0.0032314134296029806,0.0032314134296029806,0.000125,0.35333332419395447,1.5887807607650757,1.5887807607650757
205,1.0,0.0032069284934550524,0.0032069284934550524,0.000125,0.35333332419395447,1.5875927209854126,1.5875927209854126
206,1.0,0.003181821433827281,0.003181821433827281,0.000125,0.35333332419395447,1.5863336324691772,1.5863336324691772
207,1.0,0.0031571516301482916,0.0031571516301482916,0.000125,0.35333332419395447,1.5851140022277832,1.5851140022277832
208,1.0,0.0031329167541116476,0.0031329167541116476,0.000125,0.35333332419395447,1.5838533639907837,1.5838533639907837
209,1.0,0.003108574775978923,0.003108574775978923,0.000125,0.35333332419395447,1.58258056640625,1.58258056640625
210,1.0,0.0030845145229250193,0.0030845145229250193,0.000125,0.35333332419395447,1.5812866687774658,1.5812866687774658
211,1.0,0.003061167662963271,0.003061167662963271,0.000125,0.35333332419395447,1.5798848867416382,1.5798848867416382
212,1.0,0.0030378184746950865,0.0030378184746950865,0.000125,0.35333332419395447,1.5785768032073975,1.5785768032073975
213,1.0,0.003015708178281784,0.003015708178281784,0.000125,0.35333332419395447,1.5771745443344116,1.5771745443344116
214,1.0,0.002992791123688221,0.002992791123688221,0.000125,0.35333332419395447,1.5758038759231567,1.5758038759231567
215,1.0,0.0029705530032515526,0.0029705530032515526,0.000125,0.35333332419395447,1.5744144916534424,1.5744144916534424
216,1.0,0.0029479938093572855,0.0029479938093572855,0.000125,0.35333332419395447,1.5728754997253418,1.5728754997253418
217,1.0,0.0029262842144817114,0.0029262842144817114,0.000125,0.35333332419395447,1.5715065002441406,1.5715065002441406
218,1.0,0.002905834699049592,0.002905834699049592,1e-04,0.35333332419395447,1.5700421333312988,1.5700421333312988
219,1.0,0.0028878923039883375,0.0028878923039883375,1e-04,0.3531111180782318,1.5685080289840698,1.5685080289840698
220,1.0,0.0028714844956994057,0.0028714844956994057,1e-04,0.3531111180782318,1.5669305324554443,1.5669305324554443
221,1.0,0.0028542352374643087,0.0028542352374643087,1e-04,0.3531111180782318,1.5654670000076294,1.5654670000076294
222,1.0,0.002838913584128022,0.002838913584128022,1e-04,0.35333332419395447,1.563811182975769,1.563811182975769
223,1.0,0.0028213695622980595,0.0028213695622980595,1e-04,0.35333332419395447,1.562082290649414,1.562082290649414
224,1.0,0.0028062951751053333,0.0028062951751053333,1e-04,0.35333332419395447,1.5605400800704956,1.5605400800704956
225,1.0,0.0027898477856069803,0.0027898477856069803,1e-04,0.35333332419395447,1.558912992477417,1.558912992477417
226,1.0,0.0027739102952182293,0.0027739102952182293,1e-04,0.35333332419395447,1.5571763515472412,1.5571763515472412
227,1.0,0.002758804941549897,0.002758804941549897,1e-04,0.35333332419395447,1.5554085969924927,1.5554085969924927
228,1.0,0.0027431866619735956,0.0027431866619735956,1e-04,0.35333332419395447,1.5535751581192017,1.5535751581192017
229,1.0,0.0027271609287708998,0.0027271609287708998,1e-04,0.3535555601119995,1.5517224073410034,1.551722526550293
230,1.0,0.0027116748970001936,0.0027116748970001936,1e-04,0.3535555601119995,1.5498318672180176,1.5498318672180176
231,1.0,0.002697351621463895,0.002697351621463895,1e-04,0.3535555601119995,1.5479207038879395,1.5479207038879395
232,1.0,0.0026817249599844217,0.0026817249599844217,1e-04,0.3535555601119995,1.5460078716278076,1.5460078716278076
233,1.0,0.002666766755282879,0.002666766755282879,1e-04,0.3535555601119995,1.5440220832824707,1.5440220832824707
234,1.0,0.002652095165103674,0.002652095165103674,1e-04,0.35333332419395447,1.5420714616775513,1.5420714616775513
235,1.0,0.0026374291628599167,0.0026374291628599167,1e-04,0.3531111180782318,1.5400227308273315,1.5400227308273315
236,1.0,0.002623967593535781,0.002623967593535781,1e-04,0.35333332419395447,1.5379071235656738,1.5379071235656738
237,1.0,0.0026087546721100807,0.0026087546721100807,1e-04,0.3535555601119995,1.535717487335205,1.535717487335205
238,1.0,0.0025947571266442537,0.0025947571266442537,1e-04,0.3535555601119995,1.533491611480713,1.533491611480713
239,1.0,0.002580014057457447,0.002580014057457447,1e-04,0.3535555601119995,1.5312565565109253,1.5312565565109253
240,1.0,0.002566045382991433,0.002566045382991433,1e-04,0.3535555601119995,1.5289946794509888,1.5289946794509888
241,1.0,0.0025522231590002775,0.0025522231590002775,1e-04,0.35422220826148987,1.5267075300216675,1.5267075300216675
242,1.0,0.0025387078057974577,0.0025387078057974577,1e-04,0.35422220826148987,1.5243040323257446,1.5243040323257446
243,1.0,0.0025251139886677265,0.0025251139886677265,1e-04,0.35377776622772217,1.5219711065292358,1.5219709873199463
244,1.0,0.002511401195079088,0.002511401195079088,1e-04,0.3540000021457672,1.5195846557617188,1.5195846557617188
245,1.0,0.0024984185583889484,0.0024984185583889484,1e-04,0.3544444441795349,1.5171343088150024,1.5171343088150024
246,1.0,0.002485254080966115,0.002485254080966115,1e-04,0.35422220826148987,1.5145918130874634,1.5145918130874634
247,1.0,0.002471736865118146,0.002471736865118146,1e-04,0.35377776622772217,1.5119280815124512,1.5119280815124512
248,1.0,0.002458374248817563,0.002458374248817563,1e-04,0.35377776622772217,1.5094174146652222,1.5094172954559326
249,1.0,0.0024458467960357666,0.0024458467960357666,1e-04,0.3535555601119995,1.506730079650879,1.506730079650879
250,1.0,0.0024329943116754293,0.0024329943116754293,1e-04,0.3540000021457672,1.5040650367736816,1.5040650367736816
251,1.0,0.0024205322843044996,0.0024205322843044996,1e-04,0.3540000021457672,1.501283884048462,1.501283884048462
252,1.0,0.002407356398180127,0.002407356398180127,1e-04,0.35422220826148987,1.4984753131866455,1.4984753131866455
253,1.0,0.002395506016910076,0.002395506016910076,1e-04,0.3548888862133026,1.4955216646194458,1.4955216646194458
254,1.0,0.0023823999799788,0.0023823999799788,1e-04,0.3544444441795349,1.4926652908325195,1.4926652908325195
255,1.0,0.002370607340708375,0.002370607340708375,1e-04,0.35466668009757996,1.4896092414855957,1.4896092414855957
256,1.0,0.0023582365829497576,0.0023582365829497576,1e-04,0.35466668009757996,1.4865143299102783,1.4865143299102783
257,1.0,0.0023464637342840433,0.0023464637342840433,1e-04,0.3544444441795349,1.4834799766540527,1.4834799766540527
258,1.0,0.0023348843678832054,0.0023348843678832054,1e-04,0.35377776622772217,1.4804643392562866,1.4804643392562866
259,1.0,0.002322465879842639,0.002322465879842639,1e-04,0.35333332419395447,1.4771742820739746,1.4771742820739746
260,1.0,0.0023101801052689552,0.0023101801052689552,1e-04,0.35377776622772217,1.4738868474960327,1.4738868474960327
261,1.0,0.002299110870808363,0.002299110870808363,1e-04,0.3535555601119995,1.4705976247787476,1.4705976247787476
262,1.0,0.0022868472151458263,0.0022868472151458263,1e-04,0.3544444441795349,1.4673805236816406,1.4673805236816406
263,1.0,0.002275556791573763,0.002275556791573763,1e-04,0.3548888862133026,1.4638934135437012,1.4638934135437012
264,1.0,0.0022643806878477335,0.0022643806878477335,1e-04,0.3548888862133026,1.4604101181030273,1.4604101181030273
265,1.0,0.002253148937597871,0.002253148937597871,1e-04,0.355777770280838,1.4568707942962646,1.4568707942962646
266,1.0,0.0022417588625103235,0.0022417588625103235,1e-04,0.3562222123146057,1.4531124830245972,1.4531124830245972
267,1.0,0.0022303485311567783,0.0022303485311567783,1e-04,0.35600000619888306,1.4494774341583252,1.4494774341583252
268,1.0,0.0022193086333572865,0.0022193086333572865,1e-04,0.3566666543483734,1.44568932056427,1.44568932056427
269,1.0,0.002208509249612689,0.002208509249612689,1e-04,0.35688889026641846,1.4419565200805664,1.4419565200805664
270,1.0,0.002197666559368372,0.002197666559368372,1e-04,0.35644444823265076,1.4380736351013184,1.4380736351013184
271,1.0,0.002187103033065796,0.002187103033065796,1e-04,0.35644444823265076,1.434160590171814,1.434160590171814
272,1.0,0.0021764931734651327,0.0021764931734651327,1e-04,0.3553333282470703,1.4301615953445435,1.4301615953445435
273,1.0,0.0021656195167452097,0.0021656195167452097,1e-04,0.35600000619888306,1.4260743856430054,1.4260743856430054
274,1.0,0.0021546806674450636,0.0021546806674450636,1e-04,0.3571110963821411,1.4219322204589844,1.4219322204589844
275,1.0,0.002144102705642581,0.002144102705642581,1e-04,0.3580000102519989,1.4178848266601562,1.4178848266601562
276,1.0,0.002134262351319194,0.002134262351319194,1e-04,0.3575555682182312,1.4136264324188232,1.4136264324188232
277,1.0,0.0021244618110358715,0.0021244618110358715,1e-04,0.35733333230018616,1.4092280864715576,1.4092280864715576
278,1.0,0.0021140966564416885,0.0021140966564416885,1e-04,0.3575555682182312,1.404908537864685,1.404908537864685
279,1.0,0.002103648614138365,0.002103648614138365,1e-04,0.35733333230018616,1.4003406763076782,1.4003406763076782
280,1.0,0.0020936760120093822,0.0020936760120093822,1e-04,0.3597777783870697,1.3957237005233765,1.3957237005233765
281,1.0,0.0020836738403886557,0.0020836738403886557,1e-04,0.36222222447395325,1.3911675214767456,1.3911675214767456
282,1.0,0.00207406934350729,0.00207406934350729,1e-04,0.3646666705608368,1.3864855766296387,1.3864855766296387
283,1.0,0.002063323510810733,0.002063323510810733,1e-04,0.36622223258018494,1.381748080253601,1.381748080253601
284,1.0,0.002053535310551524,0.002053535310551524,1e-04,0.36755555868148804,1.377020239830017,1.377020239830017
285,1.0,0.0020438488572835922,0.0020438488572835922,1e-04,0.3704444468021393,1.3721787929534912,1.3721787929534912
286,1.0,0.0020344324875622988,0.0020344324875622988,1e-04,0.3735555410385132,1.36729896068573,1.36729896068573
287,1.0,0.002024977933615446,0.002024977933615446,1e-04,0.37533333897590637,1.362162470817566,1.362162470817566
288,1.0,0.002015223726630211,0.002015223726630211,1e-04,0.3779999911785126,1.3572112321853638,1.3572112321853638
289,1.0,0.0020052422769367695,0.0020052422769367695,1e-04,0.37977778911590576,1.3520963191986084,1.3520963191986084
290,1.0,0.0019966261461377144,0.0019966261461377144,1e-04,0.38155555725097656,1.3467903137207031,1.3467903137207031
291,1.0,0.001987612806260586,0.001987612806260586,1e-04,0.3835555613040924,1.3416639566421509,1.3416639566421509
292,1.0,0.001977860229089856,0.001977860229089856,1e-04,0.38555556535720825,1.3363837003707886,1.3363837003707886
293,1.0,0.0019693616777658463,0.0019693616777658463,1e-04,0.3893333375453949,1.331060528755188,1.331060528755188
294,1.0,0.0019594323821365833,0.0019594323821365833,1e-04,0.3928889036178589,1.3255401849746704,1.3255401849746704
295,1.0,0.001950340229086578,0.001950340229086578,1e-04,0.39577779173851013,1.3201677799224854,1.3201677799224854
296,1.0,0.0019417454022914171,0.0019417454022914171,1e-04,0.3991111218929291,1.3147321939468384,1.3147321939468384
297,1.0,0.001933065359480679,0.001933065359480679,1e-04,0.4031111001968384,1.3092684745788574,1.3092684745788574
298,1.0,0.0019243239657953382,0.0019243239657953382,1e-04,0.40622222423553467,1.3039075136184692,1.3039075136184692
299,1.0,0.0019151369342580438,0.0019151369342580438,1e-04,0.40933331847190857,1.2983858585357666,1.2983858585357666
300,1.0,0.0019068231340497732,0.0019068231340497732,1e-04,0.4131111204624176,1.292627215385437,1.292627215385437
301,1.0,0.0018978967564180493,0.0018978967564180493,1e-04,0.4175555408000946,1.2868754863739014,1.2868754863739014
302,1.0,0.0018894027452915907,0.0018894027452915907,1e-04,0.4206666648387909,1.2811572551727295,1.2811572551727295
303,1.0,0.001881014322862029,0.001881014322862029,1e-04,0.42355555295944214,1.2753077745437622,1.2753077745437622
304,1.0,0.0018723298562690616,0.0018723298562690616,1e-04,0.42711111903190613,1.2694472074508667,1.2694472074508667
305,1.0,0.0018638315377756953,0.0018638315377756953,1e-04,0.43111109733581543,1.2636688947677612,1.2636688947677612
306,1.0,0.0018557808361947536,0.0018557808361947536,1e-04,0.433555543422699,1.2578109502792358,1.2578109502792358
307,1.0,0.0018473312957212329,0.0018473312957212329,1e-04,0.43622222542762756,1.2519444227218628,1.2519444227218628
308,1.0,0.0018391102785244584,0.0018391102785244584,1e-04,0.4395555555820465,1.2459386587142944,1.2459386587142944
309,1.0,0.001830786233767867,0.001830786233767867,1e-04,0.4431111216545105,1.2400257587432861,1.2400257587432861
310,1.0,0.0018226754618808627,0.0018226754618808627,1e-04,0.4471110999584198,1.2339941263198853,1.2339941263198853
311,1.0,0.0018147719092667103,0.0018147719092667103,1e-04,0.4519999921321869,1.2280876636505127,1.2280876636505127
312,1.0,0.0018066413467749953,0.0018066413467749953,1e-04,0.4560000002384186,1.2220048904418945,1.2220048904418945
313,1.0,0.001799357240088284,0.001799357240088284,1e-04,0.4602222144603729,1.215886116027832,1.215886116027832
314,1.0,0.0017915511270985007,0.0017915511270985007,1e-04,0.46266666054725647,1.2096601724624634,1.2096601724624634
315,1.0,0.001783847576007247,0.001783847576007247,1e-04,0.4659999907016754,1.203540563583374,1.203540563583374
316,1.0,0.0017762108473107219,0.0017762108473107219,1e-04,0.47244444489479065,1.1971789598464966,1.1971789598464966
317,1.0,0.0017682408215478063,0.0017682408215478063,1e-04,0.4775555431842804,1.190740942955017,1.190740942955017
318,1.0,0.0017610271461308002,0.0017610271461308002,1e-04,0.4815555512905121,1.1843581199645996,1.1843581199645996
319,1.0,0.0017533323261886835,0.0017533323261886835,1e-04,0.4868888854980469,1.1781227588653564,1.1781227588653564
320,1.0,0.0017457547364756465,0.0017457547364756465,1e-04,0.4933333396911621,1.1719456911087036,1.1719456911087036
321,1.0,0.001738235936500132,0.001738235936500132,1e-04,0.49799999594688416,1.1655781269073486,1.1655781269073486
322,1.0,0.0017303155036643147,0.0017303155036643147,1e-04,0.5031111240386963,1.1592333316802979,1.1592333316802979
323,1.0,0.0017238652799278498,0.0017238652799278498,1e-04,0.5104444622993469,1.1527087688446045,1.1527087688446045
324,1.0,0.001715910853818059,0.001715910853818059,1e-04,0.5193333625793457,1.1462687253952026,1.1462687253952026
325,1.0,0.0017082680715247989,0.0017082680715247989,1e-04,0.5237777829170227,1.1399040222167969,1.1399040222167969
326,1.0,0.0017010049195960164,0.0017010049195960164,1e-04,0.5333333611488342,1.1333106756210327,1.1333106756210327
327,1.0,0.0016940422356128693,0.0016940422356128693,1e-04,0.5375555753707886,1.1267870664596558,1.1267870664596558
328,1.0,0.0016870144754648209,0.0016870144754648209,1e-04,0.5448889136314392,1.1202855110168457,1.1202855110168457
329,1.0,0.0016798257129266858,0.0016798257129266858,1e-04,0.551111102104187,1.1137874126434326,1.1137874126434326
330,1.0,0.001672504236921668,0.001672504236921668,1e-04,0.5584444403648376,1.1073359251022339,1.1073359251022339
331,1.0,0.0016654102364555001,0.0016654102364555001,1e-04,0.5655555725097656,1.1007843017578125,1.1007843017578125
332,1.0,0.001658459659665823,0.001658459659665823,1e-04,0.5722222328186035,1.0942392349243164,1.0942392349243164
333,1.0,0.0016518592601642013,0.0016518592601642013,1e-04,0.5799999833106995,1.087579369544983,1.087579369544983
334,1.0,0.0016453502466902137,0.0016453502466902137,1e-04,0.5853333473205566,1.0809073448181152,1.0809073448181152
335,1.0,0.0016382005997002125,0.0016382005997002125,1e-04,0.5911111235618591,1.0743094682693481,1.0743094682693481
336,1.0,0.0016315608518198133,0.0016315608518198133,1e-04,0.597777783870697,1.0675976276397705,1.0675976276397705
337,1.0,0.001625044271349907,0.001625044271349907,1e-04,0.6060000061988831,1.0608783960342407,1.0608783960342407
338,1.0,0.0016182815888896585,0.0016182815888896585,1e-04,0.612666666507721,1.0542643070220947,1.0542643070220947
339,1.0,0.001611915067769587,0.001611915067769587,1e-04,0.6191111207008362,1.0475198030471802,1.0475198030471802
340,1.0,0.0016058551846072078,0.0016058551846072078,1e-04,0.6255555748939514,1.0407609939575195,1.0407609939575195
341,1.0,0.001599043607711792,0.001599043607711792,1e-04,0.6340000033378601,1.0338895320892334,1.0338895320892334
342,1.0,0.0015924960607662797,0.0015924960607662797,1e-04,0.6424444317817688,1.0272198915481567,1.0272198915481567
343,1.0,0.00158601941075176,0.00158601941075176,1e-04,0.648888885974884,1.0204707384109497,1.0204707384109497
344,1.0,0.0015795831568539143,0.0015795831568539143,1e-04,0.6564444303512573,1.0137768983840942,1.0137768983840942
345,1.0,0.0015734804328531027,0.0015734804328531027,1e-04,0.6626666784286499,1.007049322128296,1.007049322128296
346,1.0,0.0015665511600673199,0.0015665511600673199,1e-04,0.6697777509689331,1.0003230571746826,1.0003230571746826
347,1.0,0.0015604859218001366,0.0015604859218001366,1e-04,0.6751111149787903,0.9935263395309448,0.9935263395309448
348,1.0,0.0015543699264526367,0.0015543699264526367,1e-04,0.6804444193840027,0.9865196347236633,0.9865196347236633
349,1.0,0.0015479044523090124,0.0015479044523090124,1e-04,0.6862221956253052,0.9799737334251404,0.9799737334251404
350,1.0,0.0015422708820551634,0.0015422708820551634,1e-04,0.6926666498184204,0.9730902910232544,0.9730902910232544
351,1.0,0.0015355742070823908,0.0015355742070823908,1e-04,0.6973333358764648,0.9663231372833252,0.9663231372833252
352,1.0,0.0015299732331186533,0.0015299732331186533,1e-04,0.7048888802528381,0.9596484303474426,0.9596484303474426
353,1.0,0.0015233679441735148,0.0015233679441735148,1e-04,0.7102222442626953,0.9529718160629272,0.9529718160629272
354,1.0,0.0015174697618931532,0.0015174697618931532,1e-04,0.7157777547836304,0.9459864497184753,0.9459864497184753
355,1.0,0.0015118217561393976,0.0015118217561393976,1e-04,0.7222222089767456,0.9393983483314514,0.9393983483314514
356,1.0,0.0015055525582283735,0.0015055525582283735,1e-04,0.7288888692855835,0.9328065514564514,0.9328065514564514
357,1.0,0.0014996557729318738,0.0014996557729318738,1e-04,0.7337777614593506,0.9261468052864075,0.9261468052864075
358,1.0,0.0014939247630536556,0.0014939247630536556,1e-04,0.7388888597488403,0.9193320274353027,0.9193320274353027
359,1.0,0.001487931702286005,0.001487931702286005,1e-04,0.7453333139419556,0.912808358669281,0.912808358669281
360,1.0,0.001482250401750207,0.001482250401750207,1e-04,0.7513333559036255,0.9063155651092529,0.9063155651092529
361,1.0,0.0014767226530238986,0.0014767226530238986,1e-04,0.7568888664245605,0.8995885252952576,0.8995885252952576
362,1.0,0.0014709513634443283,0.0014709513634443283,1e-04,0.761555552482605,0.8930936455726624,0.8930936455726624
363,1.0,0.001465430948883295,0.001465430948883295,1e-04,0.7646666765213013,0.8867653012275696,0.8867653012275696
364,1.0,0.0014597381232306361,0.0014597381232306361,1e-04,0.7691110968589783,0.880467414855957,0.880467414855957
365,1.0,0.0014539046678692102,0.0014539046678692102,1e-04,0.7722222208976746,0.8738900423049927,0.8738900423049927
366,1.0,0.0014484123094007373,0.0014484123094007373,1e-04,0.7773333191871643,0.8675497770309448,0.8675497770309448
367,1.0,0.001442878507077694,0.001442878507077694,1e-04,0.7806666493415833,0.861075222492218,0.861075222492218
368,1.0,0.0014373884769156575,0.0014373884769156575,1e-04,0.7835555672645569,0.8548118472099304,0.8548118472099304
369,1.0,0.0014317920431494713,0.0014317920431494713,1e-04,0.7879999876022339,0.8484793305397034,0.8484793305397034
370,1.0,0.001426524599082768,0.001426524599082768,1e-04,0.7915555834770203,0.8420636653900146,0.8420636653900146
371,1.0,0.0014207037165760994,0.0014207037165760994,1e-04,0.7973333597183228,0.8358061909675598,0.8358061909675598
372,1.0,0.0014153339434415102,0.0014153339434415102,1e-04,0.8015555739402771,0.829542875289917,0.829542875289917
373,1.0,0.0014100996777415276,0.0014100996777415276,1e-04,0.8057777881622314,0.8232815265655518,0.8232815265655518
374,1.0,0.0014045428251847625,0.0014045428251847625,1e-04,0.8075555562973022,0.8171404004096985,0.8171404004096985
375,1.0,0.0013993959873914719,0.0013993959873914719,1e-04,0.8100000023841858,0.811039388179779,0.811039388179779
376,1.0,0.0013941333163529634,0.0013941333163529634,1e-04,0.8111110925674438,0.8048129677772522,0.8048129677772522
377,1.0,0.001388933858834207,0.001388933858834207,1e-04,0.8142222166061401,0.7987507581710815,0.7987507581710815
378,1.0,0.001383814844302833,0.001383814844302833,1e-04,0.8182222247123718,0.7925881147384644,0.7925881147384644
379,1.0,0.0013786033960059285,0.0013786033960059285,1e-04,0.8206666707992554,0.7864649295806885,0.7864649295806885
380,1.0,0.0013738274574279785,0.0013738274574279785,1e-04,0.824222207069397,0.7805241942405701,0.7805241942405701
381,1.0,0.0013687683967873454,0.0013687683967873454,1e-04,0.8297777771949768,0.7746168375015259,0.7746168375015259
382,1.0,0.001363718300126493,0.001363718300126493,1e-04,0.8322222232818604,0.768988847732544,0.768988847732544
383,1.0,0.0013586437562480569,0.0013586437562480569,1e-04,0.8339999914169312,0.7630938291549683,0.7630938291549683
384,1.0,0.0013536663027480245,0.0013536663027480245,1e-04,0.8373333215713501,0.7574411034584045,0.7574411034584045
385,1.0,0.0013487932737916708,0.0013487932737916708,1e-04,0.8391110897064209,0.7517942786216736,0.7517942786216736
386,1.0,0.0013438333990052342,0.0013438333990052342,1e-04,0.8422222137451172,0.7460982799530029,0.7460982799530029
387,1.0,0.001338959438726306,0.001338959438726306,1e-04,0.8444444537162781,0.7406293749809265,0.7406293749809265
388,1.0,0.0013343001483008265,0.0013343001483008265,1e-04,0.8457777500152588,0.735001266002655,0.735001266002655
389,1.0,0.0013292516814544797,0.0013292516814544797,1e-04,0.847777783870697,0.7295507192611694,0.7295507192611694
390,1.0,0.0013244911096990108,0.0013244911096990108,1e-04,0.8495555520057678,0.7240763306617737,0.7240763306617737
391,1.0,0.0013197321677580476,0.0013197321677580476,1e-04,0.8515555262565613,0.7187551259994507,0.7187551259994507
392,1.0,0.0013148051220923662,0.0013148051220923662,1e-04,0.8528888821601868,0.7133134007453918,0.7133134007453918
393,1.0,0.0013100320938974619,0.0013100320938974619,1e-04,0.8557778000831604,0.707903265953064,0.707903265953064
394,1.0,0.0013052973663434386,0.0013052973663434386,1e-04,0.8573333621025085,0.7025389075279236,0.7025389075279236
395,1.0,0.0013008301611989737,0.0013008301611989737,1e-04,0.8584444522857666,0.6974002122879028,0.6974002122879028
396,1.0,0.0012963367626070976,0.0012963367626070976,1e-04,0.8611111044883728,0.6921787261962891,0.6921787261962891
397,1.0,0.0012918098364025354,0.0012918098364025354,1e-04,0.8642222285270691,0.6869092583656311,0.6869092583656311
398,1.0,0.0012873682426288724,0.0012873682426288724,1e-04,0.8651111125946045,0.6817690134048462,0.6817690134048462
399,1.0,0.0012825309531763196,0.0012825309531763196,1e-04,0.8666666746139526,0.6767911314964294,0.6767911314964294
400,1.0,0.0012782716657966375,0.0012782716657966375,1e-04,0.8686666488647461,0.6715248227119446,0.6715248227119446
401,1.0,0.001273726811632514,0.001273726811632514,1e-04,0.870888888835907,0.6665962934494019,0.6665962934494019
402,1.0,0.0012688672868534923,0.0012688672868534923,1e-04,0.8731111288070679,0.6614060401916504,0.6614060401916504
403,1.0,0.0012646534014493227,0.0012646534014493227,1e-04,0.874666690826416,0.6566509008407593,0.6566509008407593
404,1.0,0.0012604004004970193,0.0012604004004970193,1e-04,0.8755555748939514,0.6516352891921997,0.6516352891921997
405,1.0,0.001255860086530447,0.001255860086530447,1e-04,0.8764444589614868,0.6470881104469299,0.6470881104469299
406,1.0,0.0012517840368673205,0.0012517840368673205,1e-04,0.8773333430290222,0.6422238349914551,0.6422238349914551
407,1.0,0.001247594365850091,0.001247594365850091,1e-04,0.8786666393280029,0.6374908089637756,0.6374908089637756
408,1.0,0.0012431545183062553,0.0012431545183062553,1e-04,0.8808888792991638,0.6328516602516174,0.6328516602516174
409,1.0,0.0012391655473038554,0.0012391655473038554,1e-04,0.882888913154602,0.6281651854515076,0.6281651854515076
410,1.0,0.0012345624854788184,0.0012345624854788184,1e-04,0.8837777972221375,0.6233612895011902,0.6233612895011902
411,1.0,0.0012300206581130624,0.0012300206581130624,1e-04,0.8857777714729309,0.6188816428184509,0.6188816428184509
412,1.0,0.0012258026981726289,0.0012258026981726289,1e-04,0.8866666555404663,0.6143438220024109,0.6143438220024109
413,1.0,0.0012216062750667334,0.0012216062750667334,1e-04,0.8877778053283691,0.6098572015762329,0.6098572015762329
414,1.0,0.0012173033319413662,0.0012173033319413662,1e-04,0.8882222175598145,0.6055281162261963,0.6055281162261963
415,1.0,0.0012133186683058739,0.0012133186683058739,1e-04,0.8884444236755371,0.6008707880973816,0.6008707880973816
416,1.0,0.00120903633069247,0.00120903633069247,1e-04,0.8897777795791626,0.5964398980140686,0.5964398980140686
417,1.0,0.0012046467745676637,0.0012046467745676637,1e-04,0.8908888697624207,0.5920407772064209,0.5920407772064209
418,1.0,0.001200554776005447,0.001200554776005447,1e-04,0.8913333415985107,0.5877158045768738,0.5877158045768738
419,1.0,0.0011964148143306375,0.0011964148143306375,1e-04,0.891777753829956,0.5835970044136047,0.5835970044136047
420,1.0,0.0011925296857953072,0.0011925296857953072,1e-04,0.8928889036178589,0.5791646838188171,0.5791646838188171
421,1.0,0.001188501133583486,0.001188501133583486,1e-04,0.8931111097335815,0.5749145150184631,0.5749144554138184
422,1.0,0.0011843445245176554,0.0011843445245176554,1e-04,0.8939999938011169,0.5707123279571533,0.5707123279571533
423,1.0,0.0011802397202700377,0.0011802397202700377,1e-04,0.8942221999168396,0.5664724707603455,0.5664724707603455
424,1.0,0.0011765474919229746,0.0011765474919229746,1e-04,0.8942221999168396,0.5622208714485168,0.5622208714485168
425,1.0,0.0011726939119398594,0.0011726939119398594,1e-04,0.8948888778686523,0.5582646727561951,0.5582646727561951
426,1.0,0.0011686516227200627,0.0011686516227200627,1e-04,0.8957777619361877,0.5540980100631714,0.5540980100631714
427,1.0,0.0011647222563624382,0.0011647222563624382,1e-04,0.8962222337722778,0.5498638153076172,0.5498638153076172
428,1.0,0.001161024789325893,0.001161024789325893,1e-04,0.8973333239555359,0.5460733771324158,0.5460733771324158
429,1.0,0.0011573925148695707,0.0011573925148695707,1e-04,0.897777795791626,0.5420041680335999,0.5420041680335999
430,1.0,0.0011535530211403966,0.0011535530211403966,1e-04,0.897777795791626,0.5379605889320374,0.5379605889320374
431,1.0,0.0011496994411572814,0.0011496994411572814,1e-04,0.8982222080230713,0.5341094136238098,0.5341094136238098
432,1.0,0.001145950285717845,0.001145950285717845,1e-04,0.8982222080230713,0.5301839709281921,0.5301839709281921
433,1.0,0.0011416783090680838,0.0011416783090680838,1e-04,0.8993333578109741,0.5262678265571594,0.5262678265571594
434,1.0,0.0011380056384950876,0.0011380056384950876,1e-04,0.8995555639266968,0.522541880607605,0.522541880607605
435,1.0,0.001134121441282332,0.001134121441282332,1e-04,0.8999999761581421,0.5186619162559509,0.5186619162559509
436,1.0,0.001130289165303111,0.001130289165303111,1e-04,0.9006666541099548,0.5149422287940979,0.5149422287940979
437,1.0,0.001126690418459475,0.001126690418459475,1e-04,0.9004444479942322,0.5111162066459656,0.5111162066459656
438,1.0,0.0011232264805585146,0.0011232264805585146,1e-04,0.9011111259460449,0.5075403451919556,0.5075404047966003
439,1.0,0.001119700027629733,0.001119700027629733,1e-04,0.902222216129303,0.503838062286377,0.503838062286377
440,1.0,0.0011159628629684448,0.0011159628629684448,1e-04,0.9026666879653931,0.49992647767066956,0.49992647767066956
441,1.0,0.0011121812276542187,0.0011121812276542187,1e-04,0.9026666879653931,0.4964640438556671,0.4964640438556671
442,1.0,0.0011085534933954477,0.0011085534933954477,1e-04,0.9020000100135803,0.49296727776527405,0.49296727776527405
443,1.0,0.0011051975889131427,0.0011051975889131427,1e-04,0.9026666879653931,0.48932453989982605,0.48932453989982605
444,1.0,0.0011016923235729337,0.0011016923235729337,1e-04,0.903333306312561,0.48574674129486084,0.48574674129486084
445,1.0,0.0010981984669342637,0.0010981984669342637,1e-04,0.9037777781486511,0.48217251896858215,0.48217251896858215
446,1.0,0.0010946394177153707,0.0010946394177153707,1e-04,0.9042222499847412,0.4785161018371582,0.4785161018371582
447,1.0,0.001091248239390552,0.001091248239390552,1e-04,0.9042222499847412,0.475114107131958,0.475114107131958
448,1.0,0.0010877118911594152,0.0010877118911594152,1e-04,0.9046666622161865,0.47181862592697144,0.47181862592697144
449,1.0,0.0010841547045856714,0.0010841547045856714,1e-04,0.9051111340522766,0.4684649109840393,0.4684649109840393
450,1.0,0.0010805928613990545,0.0010805928613990545,1e-04,0.9055555462837219,0.4653147757053375,0.4653147757053375
451,1.0,0.001077463966794312,0.001077463966794312,1e-04,0.906000018119812,0.46186918020248413,0.46186918020248413
452,1.0,0.0010738600976765156,0.0010738600976765156,1e-04,0.9068889021873474,0.45875656604766846,0.45875656604766846
453,1.0,0.0010706844041123986,0.0010706844041123986,1e-04,0.9068889021873474,0.45559629797935486,0.45559629797935486
454,1.0,0.001067350385710597,0.001067350385710597,1e-04,0.9073333144187927,0.4522644877433777,0.4522644877433777
455,1.0,0.0010640515247359872,0.0010640515247359872,1e-04,0.9075555801391602,0.4490261375904083,0.4490261375904083
456,1.0,0.0010609880555421114,0.0010609880555421114,1e-04,0.9077777862548828,0.44606634974479675,0.44606634974479675
457,1.0,0.001057444722391665,0.001057444722391665,1e-04,0.9084444642066956,0.44287145137786865,0.44287145137786865
458,1.0,0.0010539126815274358,0.0010539126815274358,1e-04,0.9095555543899536,0.4396490454673767,0.4396490454673767
459,1.0,0.001050578081049025,0.001050578081049025,1e-04,0.9102222323417664,0.43686896562576294,0.43686896562576294
460,1.0,0.00104722345713526,0.00104722345713526,1e-04,0.9111111164093018,0.43388256430625916,0.43388256430625916
461,1.0,0.0010436353040859103,0.0010436353040859103,1e-04,0.9117777943611145,0.43047472834587097,0.43047472834587097
462,1.0,0.0010407519293949008,0.0010407519293949008,1e-04,0.9122222065925598,0.42778629064559937,0.42778629064559937
463,1.0,0.0010372943943366408,0.0010372943943366408,1e-04,0.9124444723129272,0.4249752461910248,0.4249752461910248
464,1.0,0.0010338232386857271,0.0010338232386857271,1e-04,0.9131110906600952,0.4219197630882263,0.4219197630882263
465,1.0,0.0010308455675840378,0.0010308455675840378,1e-04,0.9128888845443726,0.41928890347480774,0.41928890347480774
466,1.0,0.0010277577675879002,0.0010277577675879002,1e-04,0.9133333563804626,0.41679081320762634,0.41679081320762634
467,1.0,0.0010247525060549378,0.0010247525060549378,1e-04,0.9144444465637207,0.4137954115867615,0.4137954115867615
468,1.0,0.001021144213154912,0.001021144213154912,1e-04,0.9146666526794434,0.41103094816207886,0.41103094816207886
469,1.0,0.0010181122925132513,0.0010181122925132513,1e-04,0.9151111245155334,0.40875712037086487,0.40875712037086487
470,1.0,0.0010149976005777717,0.0010149976005777717,1e-04,0.9148889183998108,0.4061988890171051,0.4061988890171051
471,1.0,0.0010119929211214185,0.0010119929211214185,1e-04,0.9155555367469788,0.40330594778060913,0.40330594778060913
472,1.0,0.001009583123959601,0.001009583123959601,1e-04,0.9153333306312561,0.40106385946273804,0.40106385946273804
473,1.0,0.0010060656350106,0.0010060656350106,1e-04,0.9157778024673462,0.39862459897994995,0.39862459897994995
474,1.0,0.0010032126447185874,0.0010032126447185874,1e-04,0.9160000085830688,0.395962119102478,0.39596208930015564
475,1.0,0.0010001061018556356,0.0010001061018556356,1e-04,0.9164444208145142,0.3935478627681732,0.3935478627681732
476,1.0,0.0009971841936931014,0.0009971841936931014,1e-04,0.9168888926506042,0.391432523727417,0.391432523727417
477,1.0,0.0009942627511918545,0.0009942627511918545,1e-04,0.9179999828338623,0.3890892267227173,0.3890892267227173
478,1.0,0.0009912141831591725,0.0009912141831591725,1e-04,0.9188888669013977,0.38659951090812683,0.38659951090812683
479,1.0,0.0009884482715278864,0.0009884482715278864,1e-04,0.918666660785675,0.38434743881225586,0.38434743881225586
480,1.0,0.0009855153039097786,0.0009855153039097786,1e-04,0.918666660785675,0.382438600063324,0.382438600063324
481,1.0,0.000982588273473084,0.000982588273473084,1e-04,0.9193333387374878,0.3801436424255371,0.3801436424255371
482,1.0,0.0009797625243663788,0.0009797625243663788,1e-04,0.9195555448532104,0.37795770168304443,0.37795770168304443
483,1.0,0.0009767068549990654,0.0009767068549990654,1e-04,0.9195555448532104,0.3761870563030243,0.3761870861053467
484,1.0,0.0009736789506860077,0.0009736789506860077,1e-04,0.9204444289207458,0.37419793009757996,0.37419790029525757
485,1.0,0.0009707032004371285,0.0009707032004371285,1e-04,0.9204444289207458,0.3720737099647522,0.3720737099647522
486,1.0,0.0009679555660113692,0.0009679555660113692,1e-04,0.9208889007568359,0.3702548146247864,0.3702548146247864
487,1.0,0.0009652097942307591,0.0009652097942307591,1e-04,0.9208889007568359,0.36852961778640747,0.36852961778640747
488,1.0,0.0009623524965718389,0.0009623524965718389,1e-04,0.9213333129882812,0.36645713448524475,0.36645713448524475
489,1.0,0.0009595989249646664,0.0009595989249646664,1e-04,0.9222221970558167,0.3646183907985687,0.3646183907985687
490,1.0,0.0009568142704665661,0.0009568142704665661,1e-04,0.9228888750076294,0.3630373775959015,0.3630373775959015
491,1.0,0.0009537659934721887,0.0009537659934721887,1e-04,0.9231111407279968,0.3613680899143219,0.3613680899143219
492,1.0,0.0009510464733466506,0.0009510464733466506,1e-04,0.9235555529594421,0.3596647381782532,0.3596647381782532
493,1.0,0.0009484025649726391,0.0009484025649726391,1e-04,0.9237777590751648,0.3580424189567566,0.3580424189567566
494,1.0,0.0009458423592150211,0.0009458423592150211,1e-04,0.9242222309112549,0.3563805818557739,0.3563805818557739
495,1.0,0.0009430389036424458,0.0009430389036424458,1e-04,0.9248889088630676,0.3548125922679901,0.3548125922679901
496,1.0,0.0009403727017343044,0.0009403727017343044,1e-04,0.9248889088630676,0.3532821834087372,0.3532821834087372
497,1.0,0.0009377294918522239,0.0009377294918522239,1e-04,0.9246666431427002,0.35185521841049194,0.35185521841049194
498,1.0,0.0009349607862532139,0.0009349607862532139,1e-04,0.9251111149787903,0.35069090127944946,0.35069090127944946
499,1.0,0.0009324196144007146,0.0009324196144007146,1e-04,0.9255555272102356,0.34923869371414185,0.34923869371414185
500,1.0,0.0009296356583945453,0.0009296356583945453,1e-04,0.9255555272102356,0.3476012945175171,0.3476012945175171
501,1.0,0.0009270980372093618,0.0009270980372093618,1e-04,0.9255555272102356,0.34636637568473816,0.34636637568473816
502,1.0,0.0009243108215741813,0.0009243108215741813,1e-04,0.9255555272102356,0.34492188692092896,0.34492188692092896
503,1.0,0.0009218705235980451,0.0009218705235980451,1e-04,0.925777792930603,0.3435426950454712,0.3435426950454712
504,1.0,0.0009192069410346448,0.0009192069410346448,1e-04,0.9259999990463257,0.34246957302093506,0.34246957302093506
505,1.0,0.0009165732772089541,0.0009165732772089541,1e-04,0.9262222051620483,0.3412230908870697,0.3412230908870697
506,1.0,0.0009140695328824222,0.0009140695328824222,1e-04,0.9259999990463257,0.34006351232528687,0.34006351232528687
507,1.0,0.0009113065316341817,0.0009113065316341817,1e-04,0.9266666769981384,0.33915168046951294,0.33915168046951294
508,1.0,0.0009089047089219093,0.0009089047089219093,1e-04,0.9266666769981384,0.3379223048686981,0.3379223048686981
509,1.0,0.0009061958990059793,0.0009061958990059793,1e-04,0.9271110892295837,0.3367176651954651,0.3367176651954651
510,1.0,0.0009039772558026016,0.0009039772558026016,1e-04,0.9273333549499512,0.3360374867916107,0.3360374867916107
511,1.0,0.0009015765390358865,0.0009015765390358865,1e-04,0.9273333549499512,0.33475422859191895,0.33475422859191895
512,1.0,0.0008989823400042951,0.0008989823400042951,1e-04,0.9277777671813965,0.3336676061153412,0.3336676061153412
513,1.0,0.0008965678280219436,0.0008965678280219436,1e-04,0.9277777671813965,0.33290255069732666,0.33290255069732666
514,1.0,0.0008939837571233511,0.0008939837571233511,1e-04,0.9275555610656738,0.33215779066085815,0.33215779066085815
515,1.0,0.0008913154597394168,0.0008913154597394168,1e-04,0.9273333549499512,0.33129096031188965,0.33129096031188965
516,1.0,0.0008890319149941206,0.0008890319149941206,1e-04,0.9273333549499512,0.3306220769882202,0.3306220769882202
517,1.0,0.0008864382980391383,0.0008864382980391383,1e-04,0.9273333549499512,0.3298248052597046,0.3298248052597046
518,1.0,0.0008839576039463282,0.0008839576039463282,1e-04,0.9275555610656738,0.3286302387714386,0.3286302387714386
519,1.0,0.0008815019973553717,0.0008815019973553717,1e-04,0.9277777671813965,0.32783523201942444,0.32783523201942444
520,1.0,0.0008792526787146926,0.0008792526787146926,1e-04,0.9277777671813965,0.3272590935230255,0.3272590935230255
521,1.0,0.0008770952117629349,0.0008770952117629349,1e-04,0.9277777671813965,0.3262209892272949,0.3262209892272949
522,1.0,0.0008745872182771564,0.0008745872182771564,1e-04,0.9282222390174866,0.32565295696258545,0.32565295696258545
523,1.0,0.0008721068734303117,0.0008721068734303117,1e-04,0.9286666512489319,0.32514074444770813,0.32514074444770813
524,1.0,0.0008697558077983558,0.0008697558077983558,1e-04,0.9286666512489319,0.3243936002254486,0.3243936002254486
525,1.0,0.0008674018317833543,0.0008674018317833543,1e-04,0.9286666512489319,0.3235921561717987,0.3235921561717987
526,1.0,0.0008648473303765059,0.0008648473303765059,1e-04,0.9286666512489319,0.32324689626693726,0.32324689626693726
527,1.0,0.0008626222843304276,0.0008626222843304276,1e-04,0.9286666512489319,0.32219675183296204,0.32219675183296204
528,1.0,0.0008601840818300843,0.0008601840818300843,1e-04,0.9288889169692993,0.32157546281814575,0.32157546281814575
529,1.0,0.0008579081040807068,0.0008579081040807068,1e-04,0.929111123085022,0.321102112531662,0.321102112531662
530,1.0,0.0008555210661143064,0.0008555210661143064,1e-04,0.929111123085022,0.3205035924911499,0.3205035924911499
531,1.0,0.0008532840292900801,0.0008532840292900801,1e-04,0.9293333292007446,0.31998899579048157,0.31998899579048157
532,1.0,0.0008508221944794059,0.0008508221944794059,1e-04,0.9295555353164673,0.3193356394767761,0.3193356394767761
533,1.0,0.0008487421437166631,0.0008487421437166631,1e-04,0.9295555353164673,0.31850236654281616,0.31850236654281616
534,1.0,0.000846409413497895,0.000846409413497895,1e-04,0.9295555353164673,0.31796491146087646,0.31796491146087646
535,1.0,0.0008440067176707089,0.0008440067176707089,1e-04,0.9295555353164673,0.31772488355636597,0.31772488355636597
536,1.0,0.0008418950019404292,0.0008418950019404292,1e-04,0.9297778010368347,0.31719085574150085,0.31719085574150085
537,1.0,0.0008396583725698292,0.0008396583725698292,1e-04,0.93022221326828,0.317017525434494,0.317017525434494
538,1.0,0.0008375121979042888,0.0008375121979042888,1e-04,0.9304444193840027,0.3167078495025635,0.3167078495025635
539,1.0,0.0008354185847565532,0.0008354185847565532,1e-04,0.9306666851043701,0.31597134470939636,0.31597134470939636
540,1.0,0.000833278289064765,0.000833278289064765,1e-04,0.9306666851043701,0.31561124324798584,0.31561124324798584
541,1.0,0.0008309366530738771,0.0008309366530738771,1e-04,0.9308888912200928,0.3154396712779999,0.3154396712779999
542,1.0,0.0008288846001960337,0.0008288846001960337,1e-04,0.9308888912200928,0.3149249255657196,0.3149249255657196
543,1.0,0.0008265508222393692,0.0008265508222393692,1e-04,0.9308888912200928,0.3143998384475708,0.3143998384475708
544,1.0,0.0008244359632954001,0.0008244359632954001,1e-04,0.9311110973358154,0.3142205476760864,0.3142205476760864
545,1.0,0.0008222312317229807,0.0008222312317229807,1e-04,0.9313333630561829,0.31383588910102844,0.31383588910102844
546,1.0,0.000820061715785414,0.000820061715785414,1e-04,0.9315555691719055,0.3137553930282593,0.3137553930282593
547,1.0,0.0008180403965525329,0.0008180403965525329,1e-04,0.9317777752876282,0.31375443935394287,0.31375443935394287
548,1.0,0.000816010229755193,0.000816010229755193,1e-04,0.9322222471237183,0.31335583329200745,0.31335583329200745
549,1.0,0.0008137333788909018,0.0008137333788909018,1e-04,0.9326666593551636,0.3129585087299347,0.3129585087299347
550,1.0,0.0008116824901662767,0.0008116824901662767,1e-04,0.9328888654708862,0.31282272934913635,0.31282272934913635
551,1.0,0.0008094125078059733,0.0008094125078059733,1e-04,0.9328888654708862,0.31274619698524475,0.31274619698524475
552,1.0,0.0008076322264969349,0.0008076322264969349,1e-04,0.9333333373069763,0.3125891387462616,0.3125891387462616
553,1.0,0.0008054573554545641,0.0008054573554545641,1e-04,0.933555543422699,0.3123842179775238,0.3123842179775238
554,1.0,0.0008032923797145486,0.0008032923797145486,1e-04,0.9340000152587891,0.31230705976486206,0.31230705976486206
555,1.0,0.0008013044134713709,0.0008013044134713709,1e-04,0.9342222213745117,0.3119637966156006,0.3119637966156006
556,1.0,0.0007991183083504438,0.0007991183083504438,1e-04,0.9342222213745117,0.31198209524154663,0.31198209524154663
557,1.0,0.0007971361628733575,0.0007971361628733575,1e-04,0.9340000152587891,0.311703085899353,0.311703085899353
558,1.0,0.0007950818981043994,0.0007950818981043994,1e-04,0.9340000152587891,0.3118645250797272,0.3118645250797272
559,1.0,0.0007928494596853852,0.0007928494596853852,1e-04,0.9340000152587891,0.31162819266319275,0.31162819266319275
560,1.0,0.0007909407140687108,0.0007909407140687108,1e-04,0.9340000152587891,0.3113690912723541,0.3113690912723541
561,1.0,0.0007888711406849325,0.0007888711406849325,1e-04,0.9337777495384216,0.31132519245147705,0.31132519245147705
562,1.0,0.0007869111141189933,0.0007869111141189933,1e-04,0.9340000152587891,0.3110871911048889,0.3110871911048889
563,1.0,0.0007847427623346448,0.0007847427623346448,1e-04,0.933555543422699,0.3110310137271881,0.3110310137271881
564,1.0,0.000782844377681613,0.000782844377681613,1e-04,0.933555543422699,0.3111155033111572,0.3111155033111572
565,1.0,0.0007809100206941366,0.0007809100206941366,1e-04,0.9337777495384216,0.3108437955379486,0.3108437955379486
566,1.0,0.0007789154769852757,0.0007789154769852757,1e-04,0.9337777495384216,0.31076017022132874,0.31076017022132874
567,1.0,0.0007769395015202463,0.0007769395015202463,1e-04,0.9340000152587891,0.3109513223171234,0.3109513223171234
568,1.0,0.0007750408258289099,0.0007750408258289099,1e-04,0.9342222213745117,0.3104560673236847,0.3104560673236847
569,1.0,0.000773089355789125,0.000773089355789125,1e-04,0.9344444274902344,0.310433954000473,0.310433954000473
570,1.0,0.0007711591315455735,0.0007711591315455735,1e-04,0.9346666932106018,0.31075456738471985,0.31075456738471985
571,1.0,0.0007695197127759457,0.0007695197127759457,1e-04,0.9346666932106018,0.3102128207683563,0.3102128207683563
572,1.0,0.0007674350054003298,0.0007674350054003298,1e-04,0.9351111054420471,0.310148149728775,0.310148149728775
573,1.0,0.0007656820234842598,0.0007656820234842598,1e-04,0.9351111054420471,0.3105246424674988,0.3105246424674988
574,1.0,0.0007637517992407084,0.0007637517992407084,1e-04,0.9353333115577698,0.31019681692123413,0.31019681692123413
575,1.0,0.0007617740775458515,0.0007617740775458515,1e-04,0.9357777833938599,0.3100276291370392,0.3100276291370392
576,1.0,0.0007599309319630265,0.0007599309319630265,1e-04,0.9359999895095825,0.3103421628475189,0.3103421628475189
577,1.0,0.0007579914527013898,0.0007579914527013898,1e-04,0.9362221956253052,0.31027916073799133,0.31027916073799133
578,1.0,0.0007561684469692409,0.0007561684469692409,1e-04,0.9362221956253052,0.3098877966403961,0.3098877966403961
579,1.0,0.0007544538821093738,0.0007544538821093738,1e-04,0.9362221956253052,0.31003332138061523,0.31003332138061523
580,1.0,0.0007524989196099341,0.0007524989196099341,1e-04,0.9364444613456726,0.31044113636016846,0.31044113636016846
581,1.0,0.0007507168338634074,0.0007507168338634074,1e-04,0.9364444613456726,0.3102272152900696,0.3102272152900696
582,1.0,0.0007488203118555248,0.0007488203118555248,1e-04,0.9366666674613953,0.31009235978126526,0.31009235978126526
583,1.0,0.0007468100520782173,0.0007468100520782173,1e-04,0.9368888735771179,0.31011778116226196,0.31011778116226196
584,1.0,0.0007451311103068292,0.0007451311103068292,1e-04,0.9371111392974854,0.31027859449386597,0.31027859449386597
585,1.0,0.0007432911661453545,0.0007432911661453545,1e-04,0.9371111392974854,0.3102012276649475,0.3102012276649475
586,1.0,0.0007415574509650469,0.0007415574509650469,1e-04,0.9371111392974854,0.31070563197135925,0.31070563197135925
587,1.0,0.0007399278110824525,0.0007399278110824525,1e-04,0.9371111392974854,0.31063592433929443,0.31063592433929443
588,1.0,0.0007379294838756323,0.0007379294838756323,1e-04,0.937333345413208,0.31036749482154846,0.31036749482154846
589,1.0,0.0007361695752479136,0.0007361695752479136,1e-04,0.937333345413208,0.3102739155292511,0.3102739155292511
590,1.0,0.0007342600729316473,0.0007342600729316473,1e-04,0.9375555515289307,0.3103408217430115,0.3103408217430115
591,1.0,0.000732432643417269,0.000732432643417269,1e-04,0.9375555515289307,0.31037139892578125,0.31037139892578125
592,1.0,0.000730629195459187,0.000730629195459187,1e-04,0.9377777576446533,0.3104645311832428,0.3104645311832428
593,1.0,0.0007287651533260942,0.0007287651533260942,1e-04,0.9377777576446533,0.3107295334339142,0.3107295334339142
594,1.0,0.0007272050133906305,0.0007272050133906305,1e-04,0.9375555515289307,0.31069082021713257,0.31069082021713257
595,1.0,0.0007255084929056466,0.0007255084929056466,1e-04,0.9377777576446533,0.3107670545578003,0.3107670545578003
596,1.0,0.0007238432881422341,0.0007238432881422341,1e-04,0.9377777576446533,0.31084373593330383,0.31084373593330383
597,1.0,0.0007221858249977231,0.0007221858249977231,1e-04,0.9377777576446533,0.3106786608695984,0.3106786608695984
598,1.0,0.0007203303393907845,0.0007203303393907845,1e-04,0.9380000233650208,0.31076598167419434,0.31076598167419434
599,1.0,0.0007186619332060218,0.0007186619332060218,1e-04,0.9377777576446533,0.31093040108680725,0.31093040108680725
600,1.0,0.0007170866010710597,0.0007170866010710597,1e-04,0.9375555515289307,0.3109384775161743,0.3109384775161743
601,1.0,0.0007152420002967119,0.0007152420002967119,1e-04,0.9377777576446533,0.3110148012638092,0.3110148012638092
602,1.0,0.0007136054919101298,0.0007136054919101298,1e-04,0.9377777576446533,0.3111840486526489,0.3111840486526489
603,1.0,0.0007118817884474993,0.0007118817884474993,1e-04,0.9380000233650208,0.31084609031677246,0.31084609031677246
604,1.0,0.00071024737553671,0.00071024737553671,1e-04,0.9377777576446533,0.3109875023365021,0.3109875023365021
605,1.0,0.000708442588802427,0.000708442588802427,1e-04,0.9377777576446533,0.311244398355484,0.311244398355484
606,1.0,0.0007069275598041713,0.0007069275598041713,1e-04,0.9377777576446533,0.31110894680023193,0.31110894680023193
607,1.0,0.0007053217268548906,0.0007053217268548906,1e-04,0.9377777576446533,0.31125572323799133,0.31125572323799133
608,1.0,0.0007036236929707229,0.0007036236929707229,1e-04,0.9380000233650208,0.3112131655216217,0.3112131655216217
609,1.0,0.0007019436452537775,0.0007019436452537775,1e-04,0.9380000233650208,0.31154027581214905,0.31154027581214905
610,1.0,0.0007003401406109333,0.0007003401406109333,1e-04,0.9380000233650208,0.3115648925304413,0.3115648925304413
611,1.0,0.0006986894877627492,0.0006986894877627492,1e-04,0.9380000233650208,0.3117965757846832,0.3117965757846832
612,1.0,0.000696985109243542,0.000696985109243542,1e-04,0.9380000233650208,0.3116203844547272,0.3116203844547272
613,1.0,0.0006955605931580067,0.0006955605931580067,1e-04,0.9380000233650208,0.31152644753456116,0.31152644753456116
614,1.0,0.000694079848472029,0.000694079848472029,1e-04,0.9380000233650208,0.31176573038101196,0.31176573038101196
615,1.0,0.000692309346050024,0.000692309346050024,1e-04,0.9377777576446533,0.3120590150356293,0.3120590150356293
616,1.0,0.0006905723130330443,0.0006905723130330443,1e-04,0.9377777576446533,0.3119327127933502,0.3119327127933502
617,1.0,0.0006889099022373557,0.0006889099022373557,1e-04,0.9375555515289307,0.312234491109848,0.312234491109848
618,1.0,0.000687237421516329,0.000687237421516329,1e-04,0.9377777576446533,0.312167763710022,0.312167763710022
619,1.0,0.0006857524276711047,0.0006857524276711047,1e-04,0.9377777576446533,0.31215494871139526,0.31215494871139526
620,1.0,0.0006843261071480811,0.0006843261071480811,1e-04,0.9377777576446533,0.31246447563171387,0.31246447563171387
621,1.0,0.0006827411707490683,0.0006827411707490683,1e-04,0.9380000233650208,0.31253162026405334,0.31253162026405334
622,1.0,0.0006812759093008935,0.0006812759093008935,1e-04,0.9382222294807434,0.31273892521858215,0.31273892521858215
623,1.0,0.0006797771202400327,0.0006797771202400327,1e-04,0.9382222294807434,0.31300070881843567,0.31300070881843567
624,1.0,0.0006780368275940418,0.0006780368275940418,1e-04,0.9382222294807434,0.3128732144832611,0.3128732144832611
625,1.0,0.0006765166763216257,0.0006765166763216257,1e-04,0.9384444355964661,0.31318145990371704,0.31318145990371704
626,1.0,0.0006750932661816478,0.0006750932661816478,1e-04,0.9388889074325562,0.3131437301635742,0.3131437301635742
627,1.0,0.0006733945920132101,0.0006733945920132101,1e-04,0.9388889074325562,0.313431978225708,0.313431978225708
628,1.0,0.0006718338117934763,0.0006718338117934763,1e-04,0.9388889074325562,0.3135133385658264,0.3135133385658264
629,1.0,0.0006703097024001181,0.0006703097024001181,1e-04,0.9388889074325562,0.31334686279296875,0.31334686279296875
630,1.0,0.0006686823908239603,0.0006686823908239603,1e-04,0.9388889074325562,0.3136861026287079,0.3136861026287079
631,1.0,0.0006671457667835057,0.0006671457667835057,1e-04,0.9388889074325562,0.3137285113334656,0.3137285113334656
632,1.0,0.0006656885962001979,0.0006656885962001979,1e-04,0.9391111135482788,0.3139246106147766,0.3139246106147766
633,1.0,0.0006642085500061512,0.0006642085500061512,1e-04,0.9391111135482788,0.3139905333518982,0.3139905333518982
634,1.0,0.0006626989343203604,0.0006626989343203604,1e-04,0.9393333196640015,0.3141716718673706,0.3141716718673706
635,1.0,0.0006614018930122256,0.0006614018930122256,1e-04,0.9393333196640015,0.31406906247138977,0.31406906247138977
636,1.0,0.0006598467589356005,0.0006598467589356005,1e-04,0.9397777915000916,0.31410446763038635,0.31410446763038635
637,1.0,0.0006584084476344287,0.0006584084476344287,1e-04,0.9395555257797241,0.3144095838069916,0.3144095838069916
638,1.0,0.0006568952230736613,0.0006568952230736613,1e-04,0.9395555257797241,0.3144812285900116,0.3144812285900116
639,1.0,0.0006554808933287859,0.0006554808933287859,1e-04,0.9393333196640015,0.3146761655807495,0.3146761655807495
640,1.0,0.0006539224996231496,0.0006539224996231496,1e-04,0.9395555257797241,0.3149740993976593,0.3149740993976593
641,1.0,0.0006525680655613542,0.0006525680655613542,1e-04,0.9397777915000916,0.3150157332420349,0.3150157332420349
642,1.0,0.0006511433166451752,0.0006511433166451752,1e-04,0.9399999976158142,0.31530633568763733,0.31530633568763733
643,1.0,0.0006497898721136153,0.0006497898721136153,1e-04,0.9402222037315369,0.3152908384799957,0.3152908384799957
644,1.0,0.0006483716424554586,0.0006483716424554586,1e-04,0.9402222037315369,0.3151264786720276,0.3151264786720276
645,1.0,0.0006470625521615148,0.0006470625521615148,1e-04,0.9402222037315369,0.3153960108757019,0.3153960108757019
646,1.0,0.0006455808179453015,0.0006455808179453015,1e-04,0.9404444694519043,0.3152630031108856,0.3152630031108856
647,1.0,0.0006439837161451578,0.0006439837161451578,1e-04,0.9404444694519043,0.31548693776130676,0.31548693776130676
648,1.0,0.0006424463354051113,0.0006424463354051113,1e-04,0.940666675567627,0.3159969747066498,0.3159969747066498
649,1.0,0.000641127466224134,0.000641127466224134,1e-04,0.940666675567627,0.3159736394882202,0.3159736394882202
650,1.0,0.0006395402015186846,0.0006395402015186846,1e-04,0.940666675567627,0.31601306796073914,0.31601306796073914
651,1.0,0.0006382086430676281,0.0006382086430676281,1e-04,0.940666675567627,0.31622108817100525,0.31622108817100525
652,1.0,0.0006369021721184254,0.0006369021721184254,1e-04,0.940666675567627,0.316479355096817,0.316479355096817
653,1.0,0.000635479751508683,0.000635479751508683,1e-04,0.940666675567627,0.3167197108268738,0.3167197108268738
654,1.0,0.0006341977277770638,0.0006341977277770638,1e-04,0.9404444694519043,0.31716662645339966,0.31716662645339966
655,1.0,0.0006328321760520339,0.0006328321760520339,1e-04,0.9402222037315369,0.3172374367713928,0.3172374367713928
656,1.0,0.0006314014317467809,0.0006314014317467809,1e-04,0.9404444694519043,0.3172317445278168,0.3172317445278168
657,1.0,0.0006300847744569182,0.0006300847744569182,1e-04,0.9404444694519043,0.3171784281730652,0.3171784281730652
658,1.0,0.000628562702331692,0.000628562702331692,1e-04,0.9404444694519043,0.3172605335712433,0.3172605335712433
659,1.0,0.000627152796369046,0.000627152796369046,1e-04,0.9404444694519043,0.3179730772972107,0.3179730772972107
660,1.0,0.0006256993510760367,0.0006256993510760367,1e-04,0.9404444694519043,0.3178882300853729,0.3178882300853729
661,1.0,0.0006242530653253198,0.0006242530653253198,1e-04,0.9402222037315369,0.31805622577667236,0.31805622577667236
662,1.0,0.000623018597252667,0.000623018597252667,1e-04,0.9402222037315369,0.31842055916786194,0.31842055916786194
663,1.0,0.0006217035697773099,0.0006217035697773099,1e-04,0.9402222037315369,0.318362832069397,0.318362832069397
664,1.0,0.0006203530356287956,0.0006203530356287956,1e-04,0.9404444694519043,0.318411648273468,0.318411648273468
665,1.0,0.0006190939457155764,0.0006190939457155764,1e-04,0.9404444694519043,0.31898075342178345,0.31898075342178345
666,1.0,0.0006178100593388081,0.0006178100593388081,1e-04,0.9404444694519043,0.31907835602760315,0.31907835602760315
667,1.0,0.0006163911311887205,0.0006163911311887205,1e-04,0.9404444694519043,0.31890371441841125,0.31890371441841125
668,1.0,0.0006150883273221552,0.0006150883273221552,1e-04,0.9404444694519043,0.3191659152507782,0.3191659152507782
669,1.0,0.0006137253949418664,0.0006137253949418664,1e-04,0.9399999976158142,0.31937268376350403,0.31937268376350403
670,1.0,0.0006124592619016767,0.0006124592619016767,1e-04,0.9395555257797241,0.31895482540130615,0.31895482540130615
671,1.0,0.0006111738621257246,0.0006111738621257246,1e-04,0.9397777915000916,0.3196339011192322,0.3196339011192322
672,1.0,0.0006097842706367373,0.0006097842706367373,1e-04,0.9399999976158142,0.3200794458389282,0.3200794458389282
673,1.0,0.000608292524702847,0.000608292524702847,1e-04,0.9399999976158142,0.32003822922706604,0.32003822922706604
674,1.0,0.0006070677191019058,0.0006070677191019058,1e-04,0.9399999976158142,0.32006457448005676,0.32006457448005676
675,1.0,0.000605822482611984,0.000605822482611984,1e-04,0.9397777915000916,0.32050958275794983,0.32050958275794983
676,1.0,0.0006044626352377236,0.0006044626352377236,1e-04,0.9402222037315369,0.32055094838142395,0.32055094838142395
677,1.0,0.0006030692020431161,0.0006030692020431161,1e-04,0.9402222037315369,0.3203645944595337,0.3203645944595337
678,1.0,0.0006018488784320652,0.0006018488784320652,1e-04,0.9404444694519043,0.32096049189567566,0.32096049189567566
679,1.0,0.0006006407784298062,0.0006006407784298062,1e-04,0.940666675567627,0.3213076591491699,0.3213076591491699
680,1.0,0.0005994766252115369,0.0005994766252115369,1e-04,0.940666675567627,0.32133030891418457,0.32133030891418457
681,1.0,0.0005982508882880211,0.0005982508882880211,1e-04,0.940666675567627,0.3213910460472107,0.3213910460472107
682,1.0,0.0005970114725641906,0.0005970114725641906,1e-04,0.9404444694519043,0.32163941860198975,0.32163941860198975
683,1.0,0.0005957735702395439,0.0005957735702395439,1e-04,0.940666675567627,0.3213196396827698,0.3213196396827698
684,1.0,0.0005944674485363066,0.0005944674485363066,1e-04,0.940666675567627,0.3213830292224884,0.3213830292224884
685,1.0,0.0005933617358095944,0.0005933617358095944,1e-04,0.940666675567627,0.3217453360557556,0.3217453360557556
686,1.0,0.000592096708714962,0.000592096708714962,1e-04,0.940666675567627,0.3215866982936859,0.3215866982936859
687,1.0,0.0005909130559302866,0.0005909130559302866,1e-04,0.9408888816833496,0.32153433561325073,0.32153433561325073
688,1.0,0.000589732313528657,0.000589732313528657,1e-04,0.9408888816833496,0.3222476541996002,0.3222476541996002
689,1.0,0.0005884548299945891,0.0005884548299945891,1e-04,0.9411110877990723,0.3223682641983032,0.3223682641983032
690,1.0,0.0005872420151717961,0.0005872420151717961,1e-04,0.9408888816833496,0.3221900463104248,0.3221900463104248
691,1.0,0.0005860801902599633,0.0005860801902599633,1e-04,0.9408888816833496,0.3224107027053833,0.3224107027053833
692,1.0,0.0005849281442351639,0.0005849281442351639,1e-04,0.940666675567627,0.32245317101478577,0.32245317101478577
693,1.0,0.0005836936179548502,0.0005836936179548502,1e-04,0.940666675567627,0.3221776783466339,0.3221776783466339
694,1.0,0.0005825100233778358,0.0005825100233778358,1e-04,0.940666675567627,0.32236814498901367,0.32236814498901367
695,1.0,0.0005812423187308013,0.0005812423187308013,1e-04,0.9408888816833496,0.32275643944740295,0.32275643944740295
696,1.0,0.0005800536600872874,0.0005800536600872874,1e-04,0.9402222037315369,0.3227381110191345,0.3227381110191345
697,1.0,0.0005788332782685757,0.0005788332782685757,1e-04,0.9402222037315369,0.32269635796546936,0.32269635796546936
698,1.0,0.0005777000333182514,0.0005777000333182514,1e-04,0.9402222037315369,0.32300427556037903,0.32300427556037903
699,1.0,0.000576444377657026,0.000576444377657026,1e-04,0.9402222037315369,0.32335546612739563,0.32335546612739563
700,1.0,0.0005753321456722915,0.0005753321456722915,1e-04,0.9399999976158142,0.3229406476020813,0.3229406476020813
701,1.0,0.0005740688065998256,0.0005740688065998256,1e-04,0.9399999976158142,0.3230629861354828,0.3230629861354828
702,1.0,0.000572952616494149,0.000572952616494149,1e-04,0.9399999976158142,0.3234318196773529,0.3234318196773529
703,1.0,0.0005716936429962516,0.0005716936429962516,1e-04,0.9399999976158142,0.3234804570674896,0.3234804570674896
704,1.0,0.0005705573130398989,0.0005705573130398989,1e-04,0.9402222037315369,0.32369694113731384,0.32369694113731384
705,1.0,0.0005694456049241126,0.0005694456049241126,1e-04,0.9402222037315369,0.3237786889076233,0.3237786889076233
706,1.0,0.0005681607290171087,0.0005681607290171087,1e-04,0.9399999976158142,0.32387039065361023,0.32387039065361023
707,1.0,0.0005670360405929387,0.0005670360405929387,1e-04,0.9397777915000916,0.3238556981086731,0.3238556981086731
708,1.0,0.0005659338203258812,0.0005659338203258812,1e-04,0.9402222037315369,0.32393333315849304,0.32393333315849304
709,1.0,0.000564752088394016,0.000564752088394016,1e-04,0.9402222037315369,0.324077844619751,0.324077844619751
710,1.0,0.0005635640118271112,0.0005635640118271112,1e-04,0.9402222037315369,0.3241693377494812,0.3241693377494812
711,1.0,0.0005625032354146242,0.0005625032354146242,1e-04,0.9402222037315369,0.3244270980358124,0.3244270980358124
712,1.0,0.0005612864042632282,0.0005612864042632282,1e-04,0.9402222037315369,0.32474562525749207,0.32474562525749207
713,1.0,0.000560196116566658,0.000560196116566658,1e-04,0.9402222037315369,0.3245905637741089,0.3245905637741089
714,1.0,0.0005590818473137915,0.0005590818473137915,1e-04,0.940666675567627,0.3247261941432953,0.3247261941432953
715,1.0,0.0005579463322646916,0.0005579463322646916,1e-04,0.940666675567627,0.3251592516899109,0.3251592516899109
716,1.0,0.0005568712367676198,0.0005568712367676198,1e-04,0.9411110877990723,0.3247136175632477,0.3247136175632477
717,1.0,0.000555778038688004,0.000555778038688004,1e-04,0.9411110877990723,0.32492032647132874,0.32492032647132874
718,1.0,0.0005545963649637997,0.0005545963649637997,1e-04,0.9411110877990723,0.32496100664138794,0.32496100664138794
719,1.0,0.0005535238888114691,0.0005535238888114691,1e-04,0.9413333535194397,0.3249310851097107,0.3249310851097107
720,1.0,0.0005525355227291584,0.0005525355227291584,1e-04,0.9413333535194397,0.32483306527137756,0.32483306527137756
721,1.0,0.0005514068761840463,0.0005514068761840463,1e-04,0.9413333535194397,0.325511634349823,0.325511634349823
722,1.0,0.000550253433175385,0.000550253433175385,1e-04,0.9413333535194397,0.3254193067550659,0.3254193067550659
723,1.0,0.0005490510375238955,0.0005490510375238955,1e-04,0.9415555596351624,0.3253166675567627,0.3253166675567627
724,1.0,0.0005480246036313474,0.0005480246036313474,1e-04,0.9415555596351624,0.32577428221702576,0.32577428221702576
725,1.0,0.0005469641764648259,0.0005469641764648259,1e-04,0.9415555596351624,0.32603543996810913,0.32603543996810913
726,1.0,0.0005459642852656543,0.0005459642852656543,1e-04,0.941777765750885,0.3258281648159027,0.3258281648159027
727,1.0,0.0005449617165140808,0.0005449617165140808,1e-04,0.9415555596351624,0.3260791599750519,0.3260791599750519
728,1.0,0.0005438213120214641,0.0005438213120214641,1e-04,0.9415555596351624,0.3263992667198181,0.3263992667198181
729,1.0,0.0005427880678325891,0.0005427880678325891,1e-04,0.9415555596351624,0.3262184262275696,0.3262184262275696
730,1.0,0.0005417341599240899,0.0005417341599240899,1e-04,0.9415555596351624,0.3260793685913086,0.3260793685913086
731,1.0,0.0005407141870819032,0.0005407141870819032,1e-04,0.941777765750885,0.3264790177345276,0.3264790177345276
732,1.0,0.0005395992775447667,0.0005395992775447667,1e-04,0.941777765750885,0.3265584707260132,0.3265584707260132
733,1.0,0.0005385371041484177,0.0005385371041484177,1e-04,0.941777765750885,0.3266148567199707,0.3266148567199707
734,1.0,0.000537487561814487,0.000537487561814487,1e-04,0.9419999718666077,0.3268532454967499,0.3268532454967499
735,1.0,0.0005365019314922392,0.0005365019314922392,1e-04,0.9419999718666077,0.3269810378551483,0.3269810378551483
736,1.0,0.0005353629821911454,0.0005353629821911454,1e-04,0.941777765750885,0.3268684446811676,0.3268684446811676
737,1.0,0.0005343577358871698,0.0005343577358871698,1e-04,0.9419999718666077,0.3271320164203644,0.3271320164203644
738,1.0,0.0005331704160198569,0.0005331704160198569,1e-04,0.9419999718666077,0.3270105719566345,0.3270105719566345
739,1.0,0.000532129080966115,0.000532129080966115,1e-04,0.9419999718666077,0.32696136832237244,0.32696136832237244
740,1.0,0.0005311896675266325,0.0005311896675266325,1e-04,0.9419999718666077,0.3273769021034241,0.3273769021034241
741,1.0,0.000530190416611731,0.000530190416611731,1e-04,0.9419999718666077,0.3275773525238037,0.3275773525238037
742,1.0,0.0005290642729960382,0.0005290642729960382,1e-04,0.9422222375869751,0.3274685740470886,0.3274685740470886
743,1.0,0.0005281383055262268,0.0005281383055262268,1e-04,0.9419999718666077,0.3275284469127655,0.3275284469127655
744,1.0,0.0005271235131658614,0.0005271235131658614,1e-04,0.9419999718666077,0.3279406428337097,0.3279406428337097
745,1.0,0.000526100629940629,0.000526100629940629,1e-04,0.941777765750885,0.32789963483810425,0.32789963483810425
746,1.0,0.000525137409567833,0.000525137409567833,1e-04,0.941777765750885,0.3277774751186371,0.3277774751186371
747,1.0,0.0005241538747213781,0.0005241538747213781,1e-04,0.941777765750885,0.32805052399635315,0.32805052399635315
748,1.0,0.0005230017122812569,0.0005230017122812569,1e-04,0.941777765750885,0.32806530594825745,0.32806530594825745
749,1.0,0.0005219035083428025,0.0005219035083428025,1e-04,0.941777765750885,0.3279379606246948,0.3279379606246948
750,1.0,0.0005209948285482824,0.0005209948285482824,1e-04,0.941777765750885,0.32812121510505676,0.32812121510505676
751,1.0,0.000519988767337054,0.000519988767337054,1e-04,0.941777765750885,0.3284366726875305,0.3284366726875305
752,1.0,0.0005190331721678376,0.0005190331721678376,1e-04,0.941777765750885,0.3284342885017395,0.3284342885017395
753,1.0,0.0005179480067454278,0.0005179480067454278,1e-04,0.941777765750885,0.3283717930316925,0.3283717930316925
754,1.0,0.0005168741336092353,0.0005168741336092353,1e-04,0.9419999718666077,0.32873958349227905,0.32873958349227905
755,1.0,0.0005159222637303174,0.0005159222637303174,1e-04,0.941777765750885,0.32893291115760803,0.32893291115760803
756,1.0,0.0005150193464942276,0.0005150193464942276,1e-04,0.9419999718666077,0.3290025293827057,0.3290025293827057
757,1.0,0.0005140482098795474,0.0005140482098795474,1e-04,0.9419999718666077,0.3287883698940277,0.3287883698940277
758,1.0,0.0005132025689817965,0.0005132025689817965,1e-04,0.9419999718666077,0.32920384407043457,0.32920384407043457
759,1.0,0.0005122689763084054,0.0005122689763084054,1e-04,0.9419999718666077,0.32938987016677856,0.32938987016677856
760,1.0,0.0005112873623147607,0.0005112873623147607,1e-04,0.941777765750885,0.3292442858219147,0.3292442858219147
761,1.0,0.0005103320581838489,0.0005103320581838489,1e-04,0.941777765750885,0.3296158015727997,0.3296158015727997
762,1.0,0.000509402307216078,0.000509402307216078,1e-04,0.941777765750885,0.32991141080856323,0.32991141080856323
763,1.0,0.0005084947333671153,0.0005084947333671153,1e-04,0.941777765750885,0.3296733498573303,0.3296733498573303
764,1.0,0.000507455668412149,0.000507455668412149,1e-04,0.941777765750885,0.3295140564441681,0.3295140564441681
765,1.0,0.0005065412842668593,0.0005065412842668593,1e-04,0.9419999718666077,0.3301716148853302,0.3301716148853302
766,1.0,0.0005055565852671862,0.0005055565852671862,1e-04,0.9415555596351624,0.3301181197166443,0.3301181197166443
767,1.0,0.0005046609439887106,0.0005046609439887106,1e-04,0.9413333535194397,0.3299470543861389,0.3299470543861389
768,1.0,0.0005036076763644814,0.0005036076763644814,1e-04,0.9415555596351624,0.33022192120552063,0.33022192120552063
769,1.0,0.0005026557482779026,0.0005026557482779026,1e-04,0.9415555596351624,0.3306756317615509,0.3306756317615509
770,1.0,0.000501704984344542,0.000501704984344542,1e-04,0.9415555596351624,0.3305087983608246,0.3305087983608246
771,1.0,0.0005007963045500219,0.0005007963045500219,1e-04,0.9411110877990723,0.33053943514823914,0.33053943514823914
772,1.0,0.0004998663207516074,0.0004998663207516074,1e-04,0.9411110877990723,0.3308776617050171,0.3308776617050171
773,1.0,0.0004989407025277615,0.0004989407025277615,1e-04,0.9413333535194397,0.33074820041656494,0.33074820041656494
774,1.0,0.0004980377270840108,0.0004980377270840108,1e-04,0.9413333535194397,0.3306463360786438,0.3306463360786438
775,1.0,0.0004970067529939115,0.0004970067529939115,1e-04,0.9411110877990723,0.3312220275402069,0.3312220275402069
776,1.0,0.0004961485392414033,0.0004961485392414033,1e-04,0.9411110877990723,0.33115506172180176,0.33115506172180176
777,1.0,0.0004952028975822031,0.0004952028975822031,1e-04,0.9411110877990723,0.3311777114868164,0.3311777114868164
778,1.0,0.0004943310050293803,0.0004943310050293803,1e-04,0.9411110877990723,0.33142101764678955,0.33142101764678955
779,1.0,0.0004932896117679775,0.0004932896117679775,1e-04,0.9411110877990723,0.33181220293045044,0.33181220293045044
780,1.0,0.0004924535751342773,0.0004924535751342773,1e-04,0.9408888816833496,0.3317684531211853,0.3317684531211853
781,1.0,0.000491576676722616,0.000491576676722616,1e-04,0.9408888816833496,0.3318038284778595,0.3318038284778595
782,1.0,0.000490645004902035,0.000490645004902035,1e-04,0.9408888816833496,0.331957072019577,0.331957072019577
783,1.0,0.0004897188628092408,0.0004897188628092408,1e-04,0.9408888816833496,0.33193239569664,0.33193239569664
784,1.0,0.0004888533730991185,0.0004888533730991185,1e-04,0.9408888816833496,0.3322024941444397,0.3322024941444397
785,1.0,0.0004879716143477708,0.0004879716143477708,1e-04,0.9408888816833496,0.3323691785335541,0.3323691785335541
786,1.0,0.0004871684068348259,0.0004871684068348259,1e-04,0.9408888816833496,0.3325411379337311,0.3325411379337311
787,1.0,0.00048635012353770435,0.00048635012353770435,1e-04,0.9408888816833496,0.33237510919570923,0.33237510919570923
788,1.0,0.00048538268310949206,0.00048538268310949206,1e-04,0.9408888816833496,0.3325484097003937,0.3325484097003937
789,1.0,0.0004845801158808172,0.0004845801158808172,1e-04,0.9408888816833496,0.3329819142818451,0.3329819142818451
790,1.0,0.0004837182641495019,0.0004837182641495019,1e-04,0.940666675567627,0.3328327536582947,0.3328327536582947
791,1.0,0.0004828288219869137,0.0004828288219869137,1e-04,0.940666675567627,0.33291128277778625,0.33291128277778625
792,1.0,0.00048198201693594456,0.00048198201693594456,1e-04,0.940666675567627,0.33321020007133484,0.33321020007133484
793,1.0,0.0004811831458937377,0.0004811831458937377,1e-04,0.940666675567627,0.33302876353263855,0.33302876353263855
794,1.0,0.0004801915492862463,0.0004801915492862463,1e-04,0.940666675567627,0.3331722319126129,0.3331722319126129
795,1.0,0.0004793073458131403,0.0004793073458131403,1e-04,0.940666675567627,0.3335399031639099,0.3335399031639099
796,1.0,0.00047840512706898153,0.00047840512706898153,1e-04,0.9404444694519043,0.33337607979774475,0.33337607979774475
797,1.0,0.0004773714754264802,0.0004773714754264802,1e-04,0.9404444694519043,0.33354848623275757,0.33354848623275757
798,1.0,0.0004765728081110865,0.0004765728081110865,1e-04,0.9404444694519043,0.3339434266090393,0.3339434266090393
799,1.0,0.00047572737094014883,0.00047572737094014883,1e-04,0.9404444694519043,0.33374613523483276,0.33374613523483276
800,1.0,0.00047488833661191165,0.00047488833661191165,1e-04,0.9404444694519043,0.33395764231681824,0.33395764231681824
801,1.0,0.00047398291644640267,0.00047398291644640267,1e-04,0.9402222037315369,0.33398446440696716,0.33398446440696716
802,1.0,0.000473183230496943,0.000473183230496943,1e-04,0.9402222037315369,0.33402785658836365,0.33402785658836365
803,1.0,0.000472360901767388,0.000472360901767388,1e-04,0.9399999976158142,0.33412107825279236,0.33412107825279236
804,1.0,0.00047141461982391775,0.00047141461982391775,1e-04,0.9399999976158142,0.3344022333621979,0.3344022333621979
805,1.0,0.00047058594645932317,0.00047058594645932317,1e-04,0.9399999976158142,0.334507554769516,0.334507554769516
806,1.0,0.00046973515418358147,0.00046973515418358147,1e-04,0.9399999976158142,0.33447304368019104,0.33447304368019104
807,1.0,0.00046890811063349247,0.00046890811063349247,1e-04,0.9399999976158142,0.33465996384620667,0.33465996384620667
808,1.0,0.0004680724523495883,0.0004680724523495883,1e-04,0.9399999976158142,0.3348645269870758,0.3348645269870758
809,1.0,0.0004673287912737578,0.0004673287912737578,1e-04,0.9399999976158142,0.33493804931640625,0.33493804931640625
810,1.0,0.00046659226063638926,0.00046659226063638926,1e-04,0.9402222037315369,0.33510100841522217,0.33510100841522217
811,1.0,0.00046573136933147907,0.00046573136933147907,1e-04,0.9402222037315369,0.33532047271728516,0.33532047271728516
812,1.0,0.0004649267648346722,0.0004649267648346722,1e-04,0.9402222037315369,0.33541950583457947,0.33541950583457947
813,1.0,0.00046408313210122287,0.00046408313210122287,1e-04,0.9402222037315369,0.3354862332344055,0.3354862332344055
814,1.0,0.00046330902841873467,0.00046330902841873467,1e-04,0.9402222037315369,0.3357396125793457,0.3357396125793457
815,1.0,0.0004625175497494638,0.0004625175497494638,1e-04,0.9402222037315369,0.33574002981185913,0.33574002981185913
816,1.0,0.00046162836952134967,0.00046162836952134967,1e-04,0.9402222037315369,0.3356351852416992,0.3356351852416992
817,1.0,0.0004607957962434739,0.0004607957962434739,1e-04,0.9402222037315369,0.3358185887336731,0.3358185887336731
818,1.0,0.00046003091847524047,0.00046003091847524047,1e-04,0.9402222037315369,0.3361484706401825,0.3361484706401825
819,1.0,0.00045926301390863955,0.00045926301390863955,1e-04,0.9402222037315369,0.336091548204422,0.336091548204422
820,1.0,0.00045844967826269567,0.00045844967826269567,1e-04,0.9404444694519043,0.33617523312568665,0.33617523312568665
821,1.0,0.00045763899106532335,0.00045763899106532335,1e-04,0.9404444694519043,0.3363781273365021,0.3363781273365021
822,1.0,0.0004567233263514936,0.0004567233263514936,1e-04,0.9404444694519043,0.3363390564918518,0.3363390564918518
823,1.0,0.00045596854761242867,0.00045596854761242867,1e-04,0.9402222037315369,0.33656612038612366,0.33656612038612366
824,1.0,0.0004551685997284949,0.0004551685997284949,1e-04,0.9404444694519043,0.3367701768875122,0.3367701768875122
825,1.0,0.00045431728358380497,0.00045431728358380497,1e-04,0.9402222037315369,0.3367501497268677,0.3367501497268677
826,1.0,0.0004535995831247419,0.0004535995831247419,1e-04,0.9402222037315369,0.33677297830581665,0.33677297830581665
827,1.0,0.0004527937853708863,0.0004527937853708863,1e-04,0.9404444694519043,0.3370162546634674,0.3370162546634674
828,1.0,0.0004521303635556251,0.0004521303635556251,1e-04,0.940666675567627,0.33710238337516785,0.33710238337516785
829,1.0,0.00045140928705222905,0.00045140928705222905,1e-04,0.940666675567627,0.33717331290245056,0.33717331290245056
830,1.0,0.00045050462358631194,0.00045050462358631194,1e-04,0.9408888816833496,0.3373419940471649,0.3373419940471649
831,1.0,0.00044983872794546187,0.00044983872794546187,1e-04,0.9408888816833496,0.3372480273246765,0.3372480273246765
832,1.0,0.00044898357009515166,0.00044898357009515166,1e-04,0.9408888816833496,0.3373943269252777,0.3373943269252777
833,1.0,0.00044815242290496826,0.00044815242290496826,1e-04,0.9408888816833496,0.3375604748725891,0.3375604748725891
834,1.0,0.0004473626322578639,0.0004473626322578639,1e-04,0.9408888816833496,0.337738960981369,0.337738960981369
835,1.0,0.000446568796178326,0.000446568796178326,1e-04,0.9404444694519043,0.3377218544483185,0.3377218544483185
836,1.0,0.0004458801995497197,0.0004458801995497197,1e-04,0.940666675567627,0.3380195200443268,0.3380195200443268
837,1.0,0.00044508095015771687,0.00044508095015771687,1e-04,0.9408888816833496,0.3380584716796875,0.3380584716796875
838,1.0,0.00044434377923607826,0.00044434377923607826,1e-04,0.940666675567627,0.33811360597610474,0.33811360597610474
839,1.0,0.0004435745067894459,0.0004435745067894459,1e-04,0.9408888816833496,0.33835360407829285,0.33835363388061523
840,1.0,0.00044281393638812006,0.00044281393638812006,1e-04,0.9404444694519043,0.3382418155670166,0.3382418155670166
841,1.0,0.00044195851660333574,0.00044195851660333574,1e-04,0.9402222037315369,0.338272362947464,0.338272362947464
842,1.0,0.0004411678237374872,0.0004411678237374872,1e-04,0.940666675567627,0.3385736346244812,0.3385736346244812
843,1.0,0.0004403486964292824,0.0004403486964292824,1e-04,0.9404444694519043,0.3385797142982483,0.3385797142982483
844,1.0,0.00043962281779386103,0.00043962281779386103,1e-04,0.9404444694519043,0.3384694755077362,0.3384694755077362
845,1.0,0.00043889303924515843,0.00043889303924515843,1e-04,0.9404444694519043,0.33864229917526245,0.33864229917526245
846,1.0,0.0004380874743219465,0.0004380874743219465,1e-04,0.9404444694519043,0.33880478143692017,0.33880478143692017
847,1.0,0.00043733874917961657,0.00043733874917961657,1e-04,0.940666675567627,0.3387061059474945,0.3387061059474945
848,1.0,0.00043671956518664956,0.00043671956518664956,1e-04,0.940666675567627,0.33886849880218506,0.33886849880218506
849,1.0,0.0004359754384495318,0.0004359754384495318,1e-04,0.940666675567627,0.3390839099884033,0.3390839099884033
850,1.0,0.0004352401592768729,0.0004352401592768729,1e-04,0.940666675567627,0.33911460638046265,0.33911460638046265
851,1.0,0.00043446911149658263,0.00043446911149658263,1e-04,0.940666675567627,0.3390580117702484,0.3390580117702484
852,1.0,0.00043372204527258873,0.00043372204527258873,1e-04,0.940666675567627,0.33939334750175476,0.33939334750175476
853,1.0,0.00043304217979311943,0.00043304217979311943,1e-04,0.940666675567627,0.33940398693084717,0.33940398693084717
854,1.0,0.00043233964242972434,0.00043233964242972434,1e-04,0.9404444694519043,0.3393509089946747,0.3393509089946747
855,1.0,0.0004315887636039406,0.0004315887636039406,1e-04,0.9404444694519043,0.3395547568798065,0.3395547568798065
856,1.0,0.0004308767383918166,0.0004308767383918166,1e-04,0.9404444694519043,0.33981913328170776,0.33981913328170776
857,1.0,0.0004302212328184396,0.0004302212328184396,1e-04,0.9404444694519043,0.3396051824092865,0.3396051824092865
858,1.0,0.00042945402674376965,0.00042945402674376965,1e-04,0.9404444694519043,0.33961403369903564,0.33961403369903564
859,1.0,0.00042867695447057486,0.00042867695447057486,1e-04,0.9404444694519043,0.3399338126182556,0.3399338126182556
860,1.0,0.0004280000284779817,0.0004280000284779817,1e-04,0.9404444694519043,0.33999061584472656,0.33999061584472656
861,1.0,0.00042725703679025173,0.00042725703679025173,1e-04,0.9404444694519043,0.3398416042327881,0.3398416042327881
862,1.0,0.0004265459137968719,0.0004265459137968719,1e-04,0.9404444694519043,0.34004029631614685,0.34004029631614685
863,1.0,0.00042581625166349113,0.00042581625166349113,1e-04,0.9404444694519043,0.3402253985404968,0.3402253985404968
864,1.0,0.00042511694482527673,0.00042511694482527673,1e-04,0.9404444694519043,0.34018683433532715,0.34018683433532715
865,1.0,0.00042447971645742655,0.00042447971645742655,1e-04,0.9404444694519043,0.3403339087963104,0.3403339087963104
866,1.0,0.0004237440589349717,0.0004237440589349717,1e-04,0.9404444694519043,0.34052401781082153,0.34052401781082153
867,1.0,0.0004230850900057703,0.0004230850900057703,1e-04,0.9402222037315369,0.340547114610672,0.340547114610672
868,1.0,0.0004222870629746467,0.0004222870629746467,1e-04,0.9402222037315369,0.34044507145881653,0.34044507145881653
869,1.0,0.0004216345550958067,0.0004216345550958067,1e-04,0.9399999976158142,0.340542197227478,0.3405422270298004
870,1.0,0.000420913944253698,0.000420913944253698,1e-04,0.9399999976158142,0.3408413827419281,0.3408413827419281
871,1.0,0.00042022025445476174,0.00042022025445476174,1e-04,0.9399999976158142,0.3409213423728943,0.3409213423728943
872,1.0,0.0004195849469397217,0.0004195849469397217,1e-04,0.9399999976158142,0.34094732999801636,0.34094732999801636
873,1.0,0.0004189465835224837,0.0004189465835224837,1e-04,0.9397777915000916,0.34097668528556824,0.34097668528556824
874,1.0,0.0004183182609267533,0.0004183182609267533,1e-04,0.9397777915000916,0.34100034832954407,0.34100034832954407
875,1.0,0.00041769753443077207,0.00041769753443077207,1e-04,0.9397777915000916,0.3409554362297058,0.3409554362297058
876,1.0,0.00041690480429679155,0.00041690480429679155,1e-04,0.9397777915000916,0.3410564363002777,0.3410564363002777
877,1.0,0.0004161587276030332,0.0004161587276030332,1e-04,0.9395555257797241,0.3410937786102295,0.3410937786102295
878,1.0,0.000415563874412328,0.000415563874412328,1e-04,0.9395555257797241,0.3412112891674042,0.3412112891674042
879,1.0,0.00041490269359201193,0.00041490269359201193,1e-04,0.9397777915000916,0.3413142263889313,0.3413142263889313
880,1.0,0.000414120324421674,0.000414120324421674,1e-04,0.9397777915000916,0.34142401814460754,0.34142401814460754
881,1.0,0.0004134507034905255,0.0004134507034905255,1e-04,0.9397777915000916,0.34163030982017517,0.34163030982017517
882,1.0,0.00041278591379523277,0.00041278591379523277,1e-04,0.9395555257797241,0.34180158376693726,0.34180158376693726
883,1.0,0.0004120793892070651,0.0004120793892070651,1e-04,0.9395555257797241,0.34172090888023376,0.34172090888023376
884,1.0,0.00041141535621136427,0.00041141535621136427,1e-04,0.9395555257797241,0.3415971100330353,0.3415971100330353
885,1.0,0.00041068869177252054,0.00041068869177252054,1e-04,0.9395555257797241,0.3416203260421753,0.3416203260421753
886,1.0,0.00040998472832143307,0.00040998472832143307,1e-04,0.9395555257797241,0.34184637665748596,0.34184637665748596
887,1.0,0.00040931737748906016,0.00040931737748906016,1e-04,0.9395555257797241,0.34213787317276,0.34213787317276
888,1.0,0.0004086618428118527,0.0004086618428118527,1e-04,0.9395555257797241,0.3420635163784027,0.3420635163784027
889,1.0,0.00040789737249724567,0.00040789737249724567,1e-04,0.9395555257797241,0.34208542108535767,0.34208542108535767
890,1.0,0.0004073216987308115,0.0004073216987308115,1e-04,0.9395555257797241,0.34215447306632996,0.34215447306632996
891,1.0,0.0004065820830874145,0.0004065820830874145,1e-04,0.9395555257797241,0.3420782685279846,0.3420782685279846
892,1.0,0.0004059178754687309,0.0004059178754687309,1e-04,0.9395555257797241,0.342232346534729,0.3422323167324066
893,1.0,0.00040522002382203937,0.00040522002382203937,1e-04,0.9395555257797241,0.3425971269607544,0.3425971269607544
894,1.0,0.0004044881497975439,0.0004044881497975439,1e-04,0.9395555257797241,0.3426821231842041,0.3426821231842041
895,1.0,0.0004039649211335927,0.0004039649211335927,1e-04,0.9397777915000916,0.34242165088653564,0.34242162108421326
896,1.0,0.0004031697753816843,0.0004031697753816843,1e-04,0.9395555257797241,0.34251296520233154,0.34251296520233154
897,1.0,0.00040252573671750724,0.00040252573671750724,1e-04,0.9395555257797241,0.3427716791629791,0.3427716791629791
898,1.0,0.0004018791951239109,0.0004018791951239109,1e-04,0.9395555257797241,0.3428737223148346,0.3428737223148346
899,1.0,0.0004012129211332649,0.0004012129211332649,1e-04,0.9395555257797241,0.343044638633728,0.343044638633728
900,1.0,0.000400575518142432,0.000400575518142432,1e-04,0.9395555257797241,0.3430482745170593,0.3430482745170593
901,1.0,0.0004000194894615561,0.0004000194894615561,1e-04,0.9395555257797241,0.34289923310279846,0.34289923310279846
902,1.0,0.0003993645077571273,0.0003993645077571273,1e-04,0.9393333196640015,0.34290337562561035,0.34290337562561035
903,1.0,0.00039871304761618376,0.00039871304761618376,1e-04,0.9391111135482788,0.34323230385780334,0.34323230385780334
904,1.0,0.0003979614411946386,0.0003979614411946386,1e-04,0.9393333196640015,0.3435671031475067,0.3435671031475067
905,1.0,0.0003974587598349899,0.0003974587598349899,1e-04,0.9391111135482788,0.3435633182525635,0.3435633182525635
906,1.0,0.0003968440869357437,0.0003968440869357437,1e-04,0.9391111135482788,0.343567818403244,0.343567818403244
907,1.0,0.00039620648021809757,0.00039620648021809757,1e-04,0.9391111135482788,0.3436177372932434,0.3436177372932434
908,1.0,0.0003955087158828974,0.0003955087158828974,1e-04,0.9391111135482788,0.34366515278816223,0.34366515278816223
909,1.0,0.00039493292570114136,0.00039493292570114136,1e-04,0.9393333196640015,0.34377235174179077,0.34377235174179077
910,1.0,0.00039425597060471773,0.00039425597060471773,1e-04,0.9393333196640015,0.3439006209373474,0.3439006209373474
911,1.0,0.0003936355060432106,0.0003936355060432106,1e-04,0.9393333196640015,0.3439493179321289,0.3439493179321289
912,1.0,0.00039307877887040377,0.00039307877887040377,1e-04,0.9393333196640015,0.34397679567337036,0.34397679567337036
913,1.0,0.00039235272561199963,0.00039235272561199963,1e-04,0.9393333196640015,0.34393414855003357,0.34393414855003357
914,1.0,0.0003917980066034943,0.0003917980066034943,1e-04,0.9393333196640015,0.343976765871048,0.343976765871048
915,1.0,0.00039118455606512725,0.00039118455606512725,1e-04,0.9393333196640015,0.3442303538322449,0.3442303538322449
916,1.0,0.00039051068597473204,0.00039051068597473204,1e-04,0.9393333196640015,0.34445807337760925,0.34445807337760925
917,1.0,0.0003899412404280156,0.0003899412404280156,1e-04,0.9391111135482788,0.34445348381996155,0.34445348381996155
918,1.0,0.0003893488319590688,0.0003893488319590688,1e-04,0.9393333196640015,0.34448519349098206,0.34448519349098206
919,1.0,0.00038873759331181645,0.00038873759331181645,1e-04,0.9393333196640015,0.34449058771133423,0.34449058771133423
920,1.0,0.00038807824603281915,0.00038807824603281915,1e-04,0.9393333196640015,0.3446561098098755,0.3446561098098755
921,1.0,0.0003874954127240926,0.0003874954127240926,1e-04,0.9391111135482788,0.34475597739219666,0.34475597739219666
922,1.0,0.0003869081847369671,0.0003869081847369671,1e-04,0.9391111135482788,0.3448971211910248,0.3448971211910248
923,1.0,0.000386333791539073,0.000386333791539073,1e-04,0.9393333196640015,0.34501343965530396,0.34501343965530396
924,1.0,0.00038566323928534985,0.00038566323928534985,1e-04,0.9393333196640015,0.3449482321739197,0.3449482321739197
925,1.0,0.00038508191937580705,0.00038508191937580705,1e-04,0.9391111135482788,0.3449620306491852,0.3449620306491852
926,1.0,0.0003844845632556826,0.0003844845632556826,1e-04,0.9391111135482788,0.3451102077960968,0.3451102375984192
927,1.0,0.00038379058241844177,0.00038379058241844177,1e-04,0.9391111135482788,0.34536340832710266,0.34536340832710266
928,1.0,0.0003832386573776603,0.0003832386573776603,1e-04,0.9388889074325562,0.3452664017677307,0.3452664017677307
929,1.0,0.00038266059709712863,0.00038266059709712863,1e-04,0.9388889074325562,0.34520551562309265,0.34520551562309265
930,1.0,0.00038206626777537167,0.00038206626777537167,1e-04,0.9386666417121887,0.3452317714691162,0.3452317714691162
931,1.0,0.0003814800875261426,0.0003814800875261426,1e-04,0.9391111135482788,0.34529173374176025,0.34529173374176025
932,1.0,0.00038088616565801203,0.00038088616565801203,1e-04,0.9388889074325562,0.34549012780189514,0.34549012780189514
933,1.0,0.0003802365972660482,0.0003802365972660482,1e-04,0.9391111135482788,0.3456054925918579,0.3456054925918579
934,1.0,0.00037969977711327374,0.00037969977711327374,1e-04,0.9388889074325562,0.3457146883010864,0.3457146883010864
935,1.0,0.00037901525502093136,0.00037901525502093136,1e-04,0.9391111135482788,0.34572771191596985,0.34572771191596985
936,1.0,0.00037832921952940524,0.00037832921952940524,1e-04,0.9388889074325562,0.3457143306732178,0.34571436047554016
937,1.0,0.00037773692747578025,0.00037773692747578025,1e-04,0.9386666417121887,0.3457815945148468,0.3457815945148468
938,1.0,0.00037710327887907624,0.00037710327887907624,1e-04,0.9388889074325562,0.3459731638431549,0.3459731638431549
939,1.0,0.0003765595320146531,0.0003765595320146531,1e-04,0.9384444355964661,0.3461172878742218,0.3461172878742218
940,1.0,0.0003760170075111091,0.0003760170075111091,1e-04,0.9384444355964661,0.34620237350463867,0.34620237350463867
941,1.0,0.0003754174686037004,0.0003754174686037004,1e-04,0.9384444355964661,0.34609973430633545,0.34609973430633545
942,1.0,0.0003748456365428865,0.0003748456365428865,1e-04,0.9386666417121887,0.3461451828479767,0.3461451530456543
943,1.0,0.0003743425477296114,0.0003743425477296114,1e-04,0.9384444355964661,0.34618571400642395,0.34618571400642395
944,1.0,0.0003736771468538791,0.0003736771468538791,1e-04,0.9384444355964661,0.346306174993515,0.346306174993515
945,1.0,0.00037312539643608034,0.00037312539643608034,1e-04,0.9386666417121887,0.3465242385864258,0.3465242385864258
946,1.0,0.0003726117720361799,0.0003726117720361799,1e-04,0.9382222294807434,0.3465421497821808,0.3465421497821808
947,1.0,0.0003720227687153965,0.0003720227687153965,1e-04,0.9382222294807434,0.3466159403324127,0.3466159403324127
948,1.0,0.00037152660661377013,0.00037152660661377013,1e-04,0.9386666417121887,0.3466239273548126,0.3466239273548126
949,1.0,0.00037089764373376966,0.00037089764373376966,1e-04,0.9384444355964661,0.3466641306877136,0.3466641306877136
950,1.0,0.00037031935062259436,0.00037031935062259436,1e-04,0.9384444355964661,0.3466499447822571,0.3466499447822571
951,1.0,0.0003697464126162231,0.0003697464126162231,1e-04,0.9386666417121887,0.3467233180999756,0.3467233180999756
952,1.0,0.0003691660240292549,0.0003691660240292549,1e-04,0.9384444355964661,0.34689292311668396,0.34689292311668396
953,1.0,0.0003686295240186155,0.0003686295240186155,1e-04,0.9382222294807434,0.34708142280578613,0.34708142280578613
954,1.0,0.00036801936221309006,0.00036801936221309006,1e-04,0.9384444355964661,0.3471812307834625,0.3471812307834625
955,1.0,0.00036755591281689703,0.00036755591281689703,1e-04,0.9384444355964661,0.34709909558296204,0.34709909558296204
956,1.0,0.0003668932185973972,0.0003668932185973972,1e-04,0.9384444355964661,0.3470970690250397,0.3470970690250397
957,1.0,0.00036635465221479535,0.00036635465221479535,1e-04,0.9384444355964661,0.34711146354675293,0.34711146354675293
958,1.0,0.0003657448396552354,0.0003657448396552354,1e-04,0.9384444355964661,0.34729132056236267,0.34729132056236267
959,1.0,0.00036514742532745004,0.00036514742532745004,1e-04,0.9384444355964661,0.3475290834903717,0.3475290834903717
960,1.0,0.00036467984318733215,0.00036467984318733215,1e-04,0.9384444355964661,0.3475852310657501,0.3475852310657501
961,1.0,0.00036404439015313983,0.00036404439015313983,1e-04,0.9384444355964661,0.3474918007850647,0.3474918007850647
962,1.0,0.00036345291300676763,0.00036345291300676763,1e-04,0.9384444355964661,0.3475899398326874,0.3475899398326874
963,1.0,0.00036297246697358787,0.00036297246697358787,1e-04,0.9384444355964661,0.34755629301071167,0.34755629301071167
964,1.0,0.00036237447056919336,0.00036237447056919336,1e-04,0.9384444355964661,0.3474414646625519,0.3474414646625519
965,1.0,0.00036192263360135257,0.00036192263360135257,1e-04,0.9384444355964661,0.3476901948451996,0.3476901948451996
966,1.0,0.00036137065035291016,0.00036137065035291016,1e-04,0.9384444355964661,0.3478667140007019,0.3478667140007019
967,1.0,0.0003607711405493319,0.0003607711405493319,1e-04,0.9380000233650208,0.3478783965110779,0.3478783965110779
968,1.0,0.00036025745794177055,0.00036025745794177055,1e-04,0.9382222294807434,0.3479115068912506,0.3479115068912506
969,1.0,0.00035970276803709567,0.00035970276803709567,1e-04,0.9382222294807434,0.3478076756000519,0.3478076756000519
970,1.0,0.0003592403663787991,0.0003592403663787991,1e-04,0.9382222294807434,0.3478207588195801,0.3478207588195801
971,1.0,0.00035870171268470585,0.00035870171268470585,1e-04,0.9384444355964661,0.3480962812900543,0.3480962812900543
972,1.0,0.0003580746706575155,0.0003580746706575155,1e-04,0.9382222294807434,0.3481305241584778,0.3481305241584778
973,1.0,0.00035749172093346715,0.00035749172093346715,1e-04,0.9382222294807434,0.3482585549354553,0.3482585549354553
974,1.0,0.000357001437805593,0.000357001437805593,1e-04,0.9384444355964661,0.34839171171188354,0.34839171171188354
975,1.0,0.0003565033548511565,0.0003565033548511565,1e-04,0.9380000233650208,0.348292738199234,0.348292738199234
976,1.0,0.0003559548931661993,0.0003559548931661993,1e-04,0.9377777576446533,0.34831541776657104,0.34831541776657104
977,1.0,0.0003554594295565039,0.0003554594295565039,1e-04,0.9380000233650208,0.3484885096549988,0.3484885096549988
978,1.0,0.0003549234534148127,0.0003549234534148127,1e-04,0.9382222294807434,0.34861186146736145,0.34861186146736145
979,1.0,0.00035435924655757844,0.00035435924655757844,1e-04,0.9382222294807434,0.3485933542251587,0.3485933542251587
980,1.0,0.00035390385892242193,0.00035390385892242193,1e-04,0.9382222294807434,0.3484923243522644,0.3484923243522644
981,1.0,0.0003533366252668202,0.0003533366252668202,1e-04,0.9382222294807434,0.3486140966415405,0.3486140966415405
982,1.0,0.0003528508241288364,0.0003528508241288364,1e-04,0.9382222294807434,0.34860947728157043,0.34860947728157043
983,1.0,0.0003523166524246335,0.0003523166524246335,1e-04,0.9377777576446533,0.34860938787460327,0.34860938787460327
984,1.0,0.00035179153201170266,0.00035179153201170266,1e-04,0.9382222294807434,0.3488779067993164,0.3488779067993164
985,1.0,0.0003512708062771708,0.0003512708062771708,1e-04,0.9380000233650208,0.34888163208961487,0.34888163208961487
986,1.0,0.0003507144283503294,0.0003507144283503294,1e-04,0.9377777576446533,0.34884113073349,0.34884113073349
987,1.0,0.0003501970204524696,0.0003501970204524696,1e-04,0.9377777576446533,0.34885740280151367,0.34885740280151367
988,1.0,0.00034968211548402905,0.00034968211548402905,1e-04,0.9380000233650208,0.3487672209739685,0.3487672209739685
989,1.0,0.00034913531271740794,0.00034913531271740794,1e-04,0.9380000233650208,0.34876516461372375,0.34876516461372375
990,1.0,0.00034861944732256234,0.00034861944732256234,1e-04,0.9377777576446533,0.3489499092102051,0.3489499092102051
991,1.0,0.0003481017192825675,0.0003481017192825675,1e-04,0.9377777576446533,0.34905675053596497,0.34905675053596497
992,1.0,0.00034764150041155517,0.00034764150041155517,1e-04,0.9377777576446533,0.3491491377353668,0.3491491377353668
993,1.0,0.00034710930776782334,0.00034710930776782334,1e-04,0.9377777576446533,0.3491300940513611,0.3491300940513611
994,1.0,0.0003466387279331684,0.0003466387279331684,1e-04,0.9377777576446533,0.34909749031066895,0.34909749031066895
995,1.0,0.0003460526349954307,0.0003460526349954307,1e-04,0.9377777576446533,0.3491106629371643,0.3491106629371643
996,1.0,0.0003455437836237252,0.0003455437836237252,1e-04,0.9377777576446533,0.3491840064525604,0.3491840064525604
997,1.0,0.0003450661606620997,0.0003450661606620997,1e-04,0.9377777576446533,0.3492591679096222,0.3492591679096222
998,1.0,0.00034455160493962467,0.00034455160493962467,1e-04,0.9377777576446533,0.3493393659591675,0.3493393659591675
999,1.0,0.0003440322761889547,0.0003440322761889547,1e-04,0.9377777576446533,0.34941938519477844,0.34941938519477844
