epoch,accuracy,categorical_crossentropy,loss,lr,val_accuracy,val_categorical_crossentropy,val_loss
0,0.06800000369548798,1.608851432800293,1.608851432800293,0.001,0.5784444212913513,1.6025084257125854,1.6025084257125854
1,0.8859999775886536,0.6454050540924072,0.6454050540924072,0.001,0.5837777853012085,1.5910911560058594,1.5910911560058594
2,0.9020000100135803,0.3951975405216217,0.3951975405216217,0.001,0.5837777853012085,1.580757975578308,1.580757975578308
3,0.9279999732971191,0.33234986662864685,0.33234986662864685,0.001,0.5837777853012085,1.5704103708267212,1.5704103708267212
4,0.9340000152587891,0.2963026463985443,0.2963026463985443,0.001,0.5848888754844666,1.5598890781402588,1.5598890781402588
5,0.9319999814033508,0.2735898494720459,0.2735898494720459,0.001,0.7459999918937683,1.5494451522827148,1.5494451522827148
6,0.9359999895095825,0.25408485531806946,0.25408485531806946,0.001,0.871999979019165,1.5391792058944702,1.5391792058944702
7,0.9359999895095825,0.23793460428714752,0.23793460428714752,0.001,0.8482221961021423,1.5290205478668213,1.5290205478668213
8,0.9359999895095825,0.22489601373672485,0.22489601373672485,0.001,0.7986666560173035,1.519248366355896,1.519248366355896
9,0.9380000233650208,0.21420468389987946,0.21420468389987946,0.001,0.7406666874885559,1.5103346109390259,1.5103346109390259
10,0.9380000233650208,0.20504185557365417,0.20504185557365417,0.001,0.6744444370269775,1.5025436878204346,1.5025436878204346
11,0.9380000233650208,0.19654712080955505,0.19654712080955505,0.001,0.5848888754844666,1.4955682754516602,1.4955682754516602
12,0.9419999718666077,0.1896083801984787,0.1896083801984787,0.001,0.48622220754623413,1.4891711473464966,1.4891711473464966
13,0.9440000057220459,0.18210197985172272,0.18210197985172272,0.001,0.4224444329738617,1.4839264154434204,1.4839264154434204
14,0.9480000138282776,0.17536190152168274,0.17536190152168274,0.001,0.39133334159851074,1.4801490306854248,1.4801490306854248
15,0.9459999799728394,0.16888150572776794,0.16888150572776794,0.001,0.379111111164093,1.4769374132156372,1.4769374132156372
16,0.9539999961853027,0.16218191385269165,0.16218191385269165,0.001,0.36933332681655884,1.474348545074463,1.474348545074463
17,0.9559999704360962,0.1563410460948944,0.1563410460948944,0.001,0.3633333444595337,1.472991704940796,1.472991704940796
18,0.9620000123977661,0.14977671205997467,0.14977671205997467,0.001,0.3580000102519989,1.4717347621917725,1.4717347621917725
19,0.9599999785423279,0.14359064400196075,0.14359064400196075,0.001,0.35688889026641846,1.4703882932662964,1.4703882932662964
20,0.9580000042915344,0.13770361244678497,0.13770361244678497,0.001,0.3548888862133026,1.4706788063049316,1.4706788063049316
21,0.9639999866485596,0.13285109400749207,0.13285109400749207,0.001,0.3544444441795349,1.4685132503509521,1.4685132503509521
22,0.9599999785423279,0.1323685348033905,0.1323685348033905,0.001,0.3544444441795349,1.470855951309204,1.470855951309204
23,0.9660000205039978,0.12715916335582733,0.12715916335582733,0.001,0.35422220826148987,1.4679968357086182,1.4679968357086182
24,0.9620000123977661,0.12760883569717407,0.12760883569717407,0.001,0.3540000021457672,1.4693799018859863,1.4693799018859863
25,0.9660000205039978,0.11591950803995132,0.11591950803995132,0.001,0.3535555601119995,1.4730660915374756,1.4730660915374756
26,0.9660000205039978,0.12336733192205429,0.12336733192205429,0.001,0.3535555601119995,1.4694515466690063,1.4694515466690063
27,0.9660000205039978,0.12134356051683426,0.12134356051683426,0.001,0.3535555601119995,1.4665627479553223,1.4665627479553223
28,0.9620000123977661,0.12612265348434448,0.12612265348434448,0.001,0.35377776622772217,1.4683748483657837,1.4683748483657837
29,0.9660000205039978,0.11147724837064743,0.11147724837064743,0.001,0.3535555601119995,1.4735113382339478,1.4735113382339478
30,0.972000002861023,0.10504158586263657,0.10504158586263657,0.001,0.35377776622772217,1.4770258665084839,1.4770258665084839
31,0.9679999947547913,0.11069367825984955,0.11069367825984955,0.001,0.3535555601119995,1.4726916551589966,1.4726916551589966
32,0.9700000286102295,0.09606365114450455,0.09606365114450455,0.001,0.3535555601119995,1.4694265127182007,1.4694265127182007
33,0.9660000205039978,0.10042361170053482,0.10042361170053482,0.001,0.3535555601119995,1.4697531461715698,1.4697531461715698
34,0.9660000205039978,0.09550359100103378,0.09550359100103378,0.001,0.3535555601119995,1.4727808237075806,1.4727808237075806
35,0.9700000286102295,0.08939620852470398,0.08939620852470398,0.001,0.3540000021457672,1.4760489463806152,1.4760489463806152
36,0.9700000286102295,0.09044216573238373,0.09044216573238373,0.001,0.35377776622772217,1.4791676998138428,1.4791676998138428
37,0.9760000109672546,0.08322959393262863,0.08322959393262863,0.001,0.35377776622772217,1.4796847105026245,1.4796847105026245
38,0.972000002861023,0.08284315466880798,0.08284315466880798,0.001,0.35377776622772217,1.4804574251174927,1.4804574251174927
39,0.9760000109672546,0.07747554779052734,0.07747554779052734,0.001,0.35333332419395447,1.482109546661377,1.482109546661377
40,0.9779999852180481,0.07327912747859955,0.07327912747859955,0.001,0.35333332419395447,1.4807883501052856,1.4807883501052856
41,0.9779999852180481,0.07110827416181564,0.07110827416181564,0.001,0.35333332419395447,1.479366660118103,1.479366660118103
42,0.9739999771118164,0.06996714323759079,0.06996714323759079,0.001,0.35333332419395447,1.4804118871688843,1.4804118871688843
43,0.9800000190734863,0.06433233618736267,0.06433233618736267,0.001,0.35333332419395447,1.483361840248108,1.483361840248108
44,0.9800000190734863,0.06356149166822433,0.06356149166822433,0.001,0.35333332419395447,1.4814858436584473,1.4814858436584473
45,0.984000027179718,0.06281302124261856,0.06281302124261856,0.001,0.35333332419395447,1.4832466840744019,1.4832466840744019
46,0.9779999852180481,0.06852652877569199,0.06852652877569199,0.001,0.35333332419395447,1.4821090698242188,1.4821090698242188
47,0.984000027179718,0.05776480957865715,0.05776480957865715,0.001,0.35333332419395447,1.485266089439392,1.485266089439392
48,0.984000027179718,0.05526153743267059,0.05526153743267059,0.001,0.35333332419395447,1.4800411462783813,1.4800411462783813
49,0.9800000190734863,0.05704697594046593,0.05704697594046593,0.001,0.35333332419395447,1.4851949214935303,1.4851949214935303
50,0.984000027179718,0.04809444025158882,0.04809444025158882,0.001,0.35333332419395447,1.4904943704605103,1.4904943704605103
51,0.9940000176429749,0.05670939385890961,0.05670939385890961,0.001,0.35333332419395447,1.4815177917480469,1.4815177917480469
52,0.9800000190734863,0.06281329691410065,0.06281329691410065,0.001,0.35333332419395447,1.4815477132797241,1.4815477132797241
53,0.9800000190734863,0.060997117310762405,0.060997117310762405,0.001,0.35333332419395447,1.4888662099838257,1.4888662099838257
54,0.9879999756813049,0.046515729278326035,0.046515729278326035,0.001,0.35333332419395447,1.4914168119430542,1.4914168119430542
55,0.9900000095367432,0.05790048465132713,0.05790048465132713,0.001,0.35333332419395447,1.4804574251174927,1.4804574251174927
56,0.9879999756813049,0.046679530292749405,0.046679530292749405,0.001,0.35333332419395447,1.4786540269851685,1.478653907775879
57,0.9860000014305115,0.05488103628158569,0.05488103628158569,0.001,0.35333332419395447,1.485163927078247,1.485163927078247
58,0.9860000014305115,0.04450349509716034,0.04450349509716034,0.001,0.35333332419395447,1.4925907850265503,1.4925907850265503
59,0.9940000176429749,0.048092566430568695,0.048092566430568695,0.001,0.35333332419395447,1.4910451173782349,1.4910451173782349
60,0.9860000014305115,0.04571671038866043,0.04571671038866043,0.001,0.35333332419395447,1.4834249019622803,1.4834249019622803
61,0.9879999756813049,0.03893750533461571,0.03893750533461571,0.001,0.35333332419395447,1.4766148328781128,1.4766148328781128
62,0.9940000176429749,0.03839326649904251,0.03839326649904251,0.001,0.35333332419395447,1.4742517471313477,1.4742517471313477
63,0.9860000014305115,0.04315938055515289,0.04315938055515289,0.001,0.35333332419395447,1.4712674617767334,1.4712674617767334
64,0.9919999837875366,0.038173574954271317,0.038173574954271317,0.001,0.35333332419395447,1.474971890449524,1.474971890449524
65,0.9919999837875366,0.03198768571019173,0.03198768571019173,0.001,0.3531111180782318,1.4775270223617554,1.4775270223617554
66,0.9900000095367432,0.03060157410800457,0.03060157410800457,0.001,0.35333332419395447,1.4756354093551636,1.4756354093551636
67,0.9980000257492065,0.02952740341424942,0.02952740341424942,0.001,0.35333332419395447,1.4717987775802612,1.4717987775802612
68,0.9940000176429749,0.024845879524946213,0.024845879524946213,0.001,0.35333332419395447,1.468847393989563,1.468847393989563
69,0.9919999837875366,0.02609497867524624,0.02609497867524624,0.001,0.35244444012641907,1.4698346853256226,1.4698346853256226
70,0.9959999918937683,0.02210971713066101,0.02210971713066101,0.001,0.33622223138809204,1.4747146368026733,1.4747146368026733
71,1.0,0.02105238474905491,0.02105238474905491,0.001,0.3306666612625122,1.477770209312439,1.477770209312439
72,0.9940000176429749,0.02033057063817978,0.02033057063817978,0.001,0.3297777771949768,1.4772599935531616,1.4772599935531616
73,1.0,0.017959387972950935,0.017959387972950935,0.001,0.32777777314186096,1.4785245656967163,1.4785245656967163
74,1.0,0.016904354095458984,0.016904354095458984,0.001,0.32733333110809326,1.4774341583251953,1.4774341583251953
75,1.0,0.01508265919983387,0.01508265919983387,0.001,0.3293333351612091,1.4726507663726807,1.4726507663726807
76,1.0,0.014024481177330017,0.014024481177330017,0.001,0.328000009059906,1.4742586612701416,1.4742586612701416
77,1.0,0.012920712120831013,0.012920712120831013,0.001,0.3284444510936737,1.4743258953094482,1.4743258953094482
78,1.0,0.011714192107319832,0.011714192107319832,0.0005,0.32822221517562866,1.4753897190093994,1.4753897190093994
79,1.0,0.01088850386440754,0.01088850386440754,0.0005,0.3293333351612091,1.4782572984695435,1.4782572984695435
80,1.0,0.010484077036380768,0.010484077036380768,0.0005,0.3333333432674408,1.4836463928222656,1.4836463928222656
81,1.0,0.009604264982044697,0.009604264982044697,0.0005,0.33577778935432434,1.4882527589797974,1.4882527589797974
82,1.0,0.009405815042555332,0.009405815042555332,0.0005,0.33666667342185974,1.4895347356796265,1.4895347356796265
83,1.0,0.008893879130482674,0.008893879130482674,0.0005,0.3364444375038147,1.4886530637741089,1.4886530637741089
84,1.0,0.008538724854588509,0.008538724854588509,0.0005,0.33622223138809204,1.488373875617981,1.488373875617981
85,1.0,0.008216362446546555,0.008216362446546555,0.0005,0.335999995470047,1.4900556802749634,1.4900556802749634
86,1.0,0.007651952560991049,0.007651952560991049,0.0005,0.33711111545562744,1.492251992225647,1.492251992225647
87,1.0,0.0073895580135285854,0.0073895580135285854,0.0005,0.335999995470047,1.493845820426941,1.493845820426941
88,1.0,0.0069504473358392715,0.0069504473358392715,0.0005,0.33488887548446655,1.495242953300476,1.495242953300476
89,1.0,0.0067044529132544994,0.0067044529132544994,0.0005,0.33311110734939575,1.4978333711624146,1.4978333711624146
90,1.0,0.006476769223809242,0.006476769223809242,0.0005,0.32866665720939636,1.5013821125030518,1.5013821125030518
91,1.0,0.006160642020404339,0.006160642020404339,0.0005,0.32466667890548706,1.5043197870254517,1.5043197870254517
92,1.0,0.005952341947704554,0.005952341947704554,0.0005,0.32066667079925537,1.5060756206512451,1.5060756206512451
93,1.0,0.00562233617529273,0.00562233617529273,0.0005,0.31511110067367554,1.5075582265853882,1.5075582265853882
94,1.0,0.0054068174213171005,0.0054068174213171005,0.0005,0.2997777760028839,1.5102382898330688,1.5102382898330688
95,1.0,0.005223115440458059,0.005223115440458059,0.0005,0.24622222781181335,1.5140159130096436,1.5140159130096436
96,1.0,0.004963447339832783,0.004963447339832783,0.0005,0.17399999499320984,1.5174930095672607,1.5174931287765503
97,1.0,0.004798066336661577,0.004798066336661577,0.0005,0.14822222292423248,1.5193746089935303,1.5193746089935303
98,1.0,0.004623163025826216,0.004623163025826216,0.0005,0.1599999964237213,1.5199642181396484,1.5199642181396484
99,1.0,0.00443898094817996,0.00443898094817996,0.0005,0.16333332657814026,1.5206631422042847,1.5206631422042847
100,1.0,0.0042970855720341206,0.0042970855720341206,0.0005,0.13688889145851135,1.522445559501648,1.522445559501648
101,1.0,0.004136040341109037,0.004136040341109037,0.0005,0.10000000149011612,1.5248897075653076,1.5248897075653076
102,1.0,0.004008697811514139,0.004008697811514139,0.0005,0.08222222328186035,1.526868224143982,1.526868224143982
103,1.0,0.0038779464084655046,0.0038779464084655046,0.0005,0.07577777653932571,1.528741478919983,1.528741478919983
104,1.0,0.003729207208380103,0.003729207208380103,0.0005,0.06488888710737228,1.5310338735580444,1.5310338735580444
105,1.0,0.0036227907985448837,0.0036227907985448837,0.0005,0.04866666719317436,1.5346547365188599,1.5346547365188599
106,1.0,0.0035051917657256126,0.0035051917657256126,0.0005,0.040888890624046326,1.5388123989105225,1.5388123989105225
107,1.0,0.0033881294075399637,0.0033881294075399637,0.0005,0.03955555707216263,1.5419009923934937,1.5419009923934937
108,1.0,0.0032968425657600164,0.0032968425657600164,0.0005,0.03955555707216263,1.543420433998108,1.543420433998108
109,1.0,0.0032007144764065742,0.0032007144764065742,0.0005,0.03955555707216263,1.5438964366912842,1.5438964366912842
110,1.0,0.0031015388667583466,0.0031015388667583466,0.0005,0.03977777808904648,1.5445458889007568,1.5445458889007568
111,1.0,0.0030144306365400553,0.0030144306365400553,0.0005,0.03977777808904648,1.5460020303726196,1.5460020303726196
112,1.0,0.0029317026492208242,0.0029317026492208242,0.0005,0.03955555707216263,1.5480737686157227,1.5480737686157227
113,1.0,0.0028547311667352915,0.0028547311667352915,0.0005,0.03955555707216263,1.5504770278930664,1.5504770278930664
114,1.0,0.002779540838673711,0.002779540838673711,0.0005,0.03955555707216263,1.5527489185333252,1.5527490377426147
115,1.0,0.0027051614597439766,0.0027051614597439766,0.0005,0.03955555707216263,1.5552000999450684,1.5552000999450684
116,1.0,0.0026370736304670572,0.0026370736304670572,0.0005,0.03955555707216263,1.558044672012329,1.558044672012329
117,1.0,0.002571564633399248,0.002571564633399248,0.0005,0.03933333232998848,1.5610888004302979,1.5610888004302979
118,1.0,0.0025049762334674597,0.0025049762334674597,0.0005,0.03911111131310463,1.5640949010849,1.5640949010849
119,1.0,0.0024458328261971474,0.0024458328261971474,0.0005,0.03911111131310463,1.5666077136993408,1.5666077136993408
120,1.0,0.002389816101640463,0.002389816101640463,0.0005,0.03911111131310463,1.5684964656829834,1.5684964656829834
121,1.0,0.0023331749252974987,0.0023331749252974987,0.0005,0.03911111131310463,1.5702550411224365,1.5702550411224365
122,1.0,0.002280349377542734,0.002280349377542734,0.0005,0.03911111131310463,1.5719826221466064,1.5719826221466064
123,1.0,0.002230333164334297,0.002230333164334297,0.0005,0.03911111131310463,1.5739835500717163,1.5739835500717163
124,1.0,0.0021797942463308573,0.0021797942463308573,0.0005,0.03911111131310463,1.5761752128601074,1.5761752128601074
125,1.0,0.0021322756074368954,0.0021322756074368954,0.0005,0.03911111131310463,1.578310489654541,1.578310489654541
126,1.0,0.0020873709581792355,0.0020873709581792355,0.0005,0.03911111131310463,1.5803170204162598,1.5803170204162598
127,1.0,0.0020438150968402624,0.0020438150968402624,0.0005,0.03911111131310463,1.5823055505752563,1.5823055505752563
128,1.0,0.0020032378379255533,0.0020032378379255533,0.00025,0.03911111131310463,1.5843100547790527,1.5843100547790527
129,1.0,0.001982345711439848,0.001982345711439848,0.00025,0.03911111131310463,1.5864574909210205,1.5864574909210205
130,1.0,0.0019620999228209257,0.0019620999228209257,0.00025,0.03911111131310463,1.5885499715805054,1.5885499715805054
131,1.0,0.0019418785814195871,0.0019418785814195871,0.00025,0.03911111131310463,1.5907713174819946,1.5907713174819946
132,1.0,0.001923099160194397,0.001923099160194397,0.00025,0.03911111131310463,1.5930395126342773,1.5930395126342773
133,1.0,0.0019042857456952333,0.0019042857456952333,0.00025,0.03911111131310463,1.595286250114441,1.595286250114441
134,1.0,0.0018857417162507772,0.0018857417162507772,0.00025,0.03911111131310463,1.5975451469421387,1.5975451469421387
135,1.0,0.0018676380859687924,0.0018676380859687924,0.00025,0.03911111131310463,1.5997883081436157,1.5997883081436157
136,1.0,0.0018504353938624263,0.0018504353938624263,0.00025,0.03911111131310463,1.6020140647888184,1.6020140647888184
137,1.0,0.0018333084881305695,0.0018333084881305695,0.00025,0.03911111131310463,1.6041319370269775,1.6041319370269775
138,1.0,0.0018173143034800887,0.0018173143034800887,0.00025,0.03911111131310463,1.6060402393341064,1.6060402393341064
139,1.0,0.0018007259350270033,0.0018007259350270033,0.00025,0.03911111131310463,1.6076993942260742,1.6076993942260742
140,1.0,0.001784030464477837,0.001784030464477837,0.00025,0.03911111131310463,1.6093144416809082,1.6093144416809082
141,1.0,0.0017678756266832352,0.0017678756266832352,0.00025,0.03911111131310463,1.6106469631195068,1.6106469631195068
142,1.0,0.0017524149734526873,0.0017524149734526873,0.00025,0.03911111131310463,1.612054467201233,1.612054467201233
143,1.0,0.0017369790002703667,0.0017369790002703667,0.00025,0.03911111131310463,1.6131706237792969,1.6131706237792969
144,1.0,0.0017218126449733973,0.0017218126449733973,0.00025,0.03911111131310463,1.6145384311676025,1.6145384311676025
145,1.0,0.001706804265268147,0.001706804265268147,0.00025,0.03911111131310463,1.615667700767517,1.615667700767517
146,1.0,0.0016922788927331567,0.0016922788927331567,0.00025,0.03911111131310463,1.6169443130493164,1.6169443130493164
147,1.0,0.0016775989206507802,0.0016775989206507802,0.00025,0.03911111131310463,1.6183655261993408,1.6183655261993408
148,1.0,0.0016636321088299155,0.0016636321088299155,0.00025,0.03911111131310463,1.6194159984588623,1.6194159984588623
149,1.0,0.0016498597105965018,0.0016498597105965018,0.00025,0.03911111131310463,1.6206562519073486,1.6206562519073486
150,1.0,0.0016363691538572311,0.0016363691538572311,0.00025,0.03911111131310463,1.6218243837356567,1.6218243837356567
151,1.0,0.0016222904669120908,0.0016222904669120908,0.00025,0.03911111131310463,1.6228753328323364,1.6228753328323364
152,1.0,0.0016093046870082617,0.0016093046870082617,0.00025,0.03911111131310463,1.6240581274032593,1.6240581274032593
153,1.0,0.001596315298229456,0.001596315298229456,0.00025,0.03911111131310463,1.625254511833191,1.625254511833191
154,1.0,0.0015834071673452854,0.0015834071673452854,0.00025,0.03911111131310463,1.626203179359436,1.626203179359436
155,1.0,0.0015705603873357177,0.0015705603873357177,0.00025,0.03911111131310463,1.6271491050720215,1.6271491050720215
156,1.0,0.0015576966106891632,0.0015576966106891632,0.00025,0.03911111131310463,1.6279547214508057,1.6279547214508057
157,1.0,0.0015449821949005127,0.0015449821949005127,0.00025,0.03911111131310463,1.628841757774353,1.628841757774353
158,1.0,0.0015325767453759909,0.0015325767453759909,0.00025,0.03911111131310463,1.6292825937271118,1.6292825937271118
159,1.0,0.001520394580438733,0.001520394580438733,0.00025,0.03911111131310463,1.6298516988754272,1.6298516988754272
160,1.0,0.0015085675986483693,0.0015085675986483693,0.00025,0.03911111131310463,1.6303092241287231,1.6303092241287231
161,1.0,0.0014963757712394,0.0014963757712394,0.00025,0.03911111131310463,1.6306077241897583,1.6306077241897583
162,1.0,0.00148494029417634,0.00148494029417634,0.00025,0.03911111131310463,1.631221055984497,1.631221055984497
163,1.0,0.001473700045607984,0.001473700045607984,0.00025,0.03911111131310463,1.6317119598388672,1.6317119598388672
164,1.0,0.0014620901783928275,0.0014620901783928275,0.00025,0.03911111131310463,1.6320562362670898,1.6320562362670898
165,1.0,0.0014507488813251257,0.0014507488813251257,0.00025,0.03911111131310463,1.6325387954711914,1.6325387954711914
166,1.0,0.0014397836057469249,0.0014397836057469249,0.00025,0.03911111131310463,1.6330862045288086,1.6330862045288086
167,1.0,0.00142826943192631,0.00142826943192631,0.00025,0.03911111131310463,1.6331870555877686,1.6331870555877686
168,1.0,0.0014172637602314353,0.0014172637602314353,0.00025,0.03911111131310463,1.6333513259887695,1.6333513259887695
169,1.0,0.0014068138552829623,0.0014068138552829623,0.00025,0.03911111131310463,1.6334596872329712,1.6334596872329712
170,1.0,0.001396218198351562,0.001396218198351562,0.00025,0.03933333232998848,1.6332625150680542,1.6332625150680542
171,1.0,0.0013858942547813058,0.0013858942547813058,0.00025,0.03955555707216263,1.6329896450042725,1.6329896450042725
172,1.0,0.0013754015089944005,0.0013754015089944005,0.00025,0.03955555707216263,1.6328272819519043,1.6328272819519043
173,1.0,0.0013649710454046726,0.0013649710454046726,0.00025,0.03955555707216263,1.6326431035995483,1.6326431035995483
174,1.0,0.0013548481510952115,0.0013548481510952115,0.00025,0.03955555707216263,1.6323195695877075,1.6323195695877075
175,1.0,0.0013453307328745723,0.0013453307328745723,0.00025,0.03955555707216263,1.6320117712020874,1.6320117712020874
176,1.0,0.0013354619732126594,0.0013354619732126594,0.00025,0.03955555707216263,1.6318634748458862,1.6318634748458862
177,1.0,0.0013254587538540363,0.0013254587538540363,0.00025,0.03955555707216263,1.631402850151062,1.631402850151062
178,1.0,0.0013157064095139503,0.0013157064095139503,0.000125,0.03933333232998848,1.6305338144302368,1.6305338144302368
179,1.0,0.001310971099883318,0.001310971099883318,0.000125,0.03933333232998848,1.6297706365585327,1.6297706365585327
180,1.0,0.0013065976090729237,0.0013065976090729237,0.000125,0.03933333232998848,1.6291559934616089,1.6291559934616089
181,1.0,0.0013019393663853407,0.0013019393663853407,0.000125,0.03955555707216263,1.6283479928970337,1.6283479928970337
182,1.0,0.0012971945106983185,0.0012971945106983185,0.000125,0.03955555707216263,1.6274521350860596,1.6274521350860596
183,1.0,0.0012923257891088724,0.0012923257891088724,0.000125,0.03955555707216263,1.6261378526687622,1.6261378526687622
184,1.0,0.001287766732275486,0.001287766732275486,0.000125,0.03955555707216263,1.6247847080230713,1.6247847080230713
185,1.0,0.0012834123335778713,0.0012834123335778713,0.000125,0.04022222384810448,1.6234350204467773,1.6234350204467773
186,1.0,0.0012790457112714648,0.0012790457112714648,0.000125,0.04066666588187218,1.621992826461792,1.621992826461792
187,1.0,0.0012744084233418107,0.0012744084233418107,0.000125,0.041333332657814026,1.6205202341079712,1.6205202341079712
188,1.0,0.0012702782405540347,0.0012702782405540347,0.000125,0.041555557399988174,1.6190578937530518,1.6190578937530518
189,1.0,0.0012657719198614359,0.0012657719198614359,0.000125,0.041999999433755875,1.6172767877578735,1.6172767877578735
190,1.0,0.001261041616089642,0.001261041616089642,0.000125,0.04333333298563957,1.6152963638305664,1.6152963638305664
191,1.0,0.0012565974611788988,0.0012565974611788988,0.000125,0.04466666653752327,1.613450288772583,1.613450288772583
192,1.0,0.0012519267620518804,0.0012519267620518804,0.000125,0.046666666865348816,1.6112273931503296,1.6112273931503296
193,1.0,0.0012476127594709396,0.0012476127594709396,0.000125,0.04777777940034866,1.6090260744094849,1.6090260744094849
194,1.0,0.0012432627845555544,0.0012432627845555544,0.000125,0.05000000074505806,1.6067206859588623,1.6067206859588623
195,1.0,0.0012390351621434093,0.0012390351621434093,0.000125,0.052222222089767456,1.60469388961792,1.60469388961792
196,1.0,0.0012348894961178303,0.0012348894961178303,0.000125,0.05577777698636055,1.6025211811065674,1.6025211811065674
197,1.0,0.0012309032026678324,0.0012309032026678324,0.000125,0.05955555662512779,1.6000694036483765,1.6000694036483765
198,1.0,0.0012263132957741618,0.0012263132957741618,0.000125,0.06177777796983719,1.5974514484405518,1.5974514484405518
199,1.0,0.0012222682125866413,0.0012222682125866413,0.000125,0.06466666609048843,1.5947742462158203,1.5947742462158203
200,1.0,0.0012179679470136762,0.0012179679470136762,0.000125,0.06844444572925568,1.592281460762024,1.592281460762024
201,1.0,0.0012137085432186723,0.0012137085432186723,0.000125,0.07266666740179062,1.5895063877105713,1.5895063877105713
202,1.0,0.001209276495501399,0.001209276495501399,0.000125,0.07688888907432556,1.5867363214492798,1.5867363214492798
203,1.0,0.001205421518534422,0.001205421518534422,0.000125,0.08444444090127945,1.5835970640182495,1.5835970640182495
204,1.0,0.0012013292871415615,0.0012013292871415615,0.000125,0.08977777510881424,1.5802713632583618,1.5802713632583618
205,1.0,0.0011969563784077764,0.0011969563784077764,0.000125,0.09755555540323257,1.5768520832061768,1.5768520832061768
206,1.0,0.0011926923179998994,0.0011926923179998994,0.000125,0.10355555266141891,1.5736136436462402,1.5736136436462402
207,1.0,0.0011885446729138494,0.0011885446729138494,0.000125,0.10866666585206985,1.5704929828643799,1.5704929828643799
208,1.0,0.0011843800311908126,0.0011843800311908126,0.000125,0.11711110919713974,1.5669976472854614,1.5669976472854614
209,1.0,0.0011803179513663054,0.0011803179513663054,0.000125,0.12399999797344208,1.5629503726959229,1.5629503726959229
210,1.0,0.0011760902125388384,0.0011760902125388384,0.000125,0.13066667318344116,1.559310793876648,1.559310793876648
211,1.0,0.0011721168411895633,0.0011721168411895633,0.000125,0.1379999965429306,1.555713176727295,1.555713176727295
212,1.0,0.0011679645394906402,0.0011679645394906402,0.000125,0.1464444398880005,1.5517064332962036,1.5517064332962036
213,1.0,0.001164065208286047,0.001164065208286047,0.000125,0.15622222423553467,1.5476672649383545,1.5476672649383545
214,1.0,0.0011602205922827125,0.0011602205922827125,0.000125,0.16511110961437225,1.5437501668930054,1.5437501668930054
215,1.0,0.0011560168350115418,0.0011560168350115418,0.000125,0.17177778482437134,1.5397602319717407,1.5397602319717407
216,1.0,0.0011522333370521665,0.0011522333370521665,0.000125,0.18066667020320892,1.5356686115264893,1.5356686115264893
217,1.0,0.0011484393617138267,0.0011484393617138267,0.000125,0.1868888884782791,1.5313224792480469,1.5313224792480469
218,1.0,0.0011445297859609127,0.0011445297859609127,0.000125,0.1926666647195816,1.5270283222198486,1.5270283222198486
219,1.0,0.0011404772521927953,0.0011404772521927953,0.000125,0.2006666660308838,1.5226190090179443,1.5226190090179443
220,1.0,0.0011366985272616148,0.0011366985272616148,0.000125,0.20711110532283783,1.5184062719345093,1.5184062719345093
221,1.0,0.0011329674161970615,0.0011329674161970615,0.000125,0.21400000154972076,1.5138577222824097,1.5138577222824097
222,1.0,0.0011291849659755826,0.0011291849659755826,0.000125,0.218666672706604,1.5094507932662964,1.5094507932662964
223,1.0,0.001125385402701795,0.001125385402701795,0.000125,0.2240000069141388,1.5047205686569214,1.5047205686569214
224,1.0,0.0011213880497962236,0.0011213880497962236,0.000125,0.23000000417232513,1.5000064373016357,1.5000064373016357
225,1.0,0.0011172626400366426,0.0011172626400366426,0.000125,0.23711110651493073,1.4954051971435547,1.4954051971435547
226,1.0,0.001113556674681604,0.001113556674681604,0.000125,0.24244444072246552,1.490417718887329,1.490417718887329
227,1.0,0.0011097461683675647,0.0011097461683675647,0.000125,0.2495555579662323,1.4855573177337646,1.4855573177337646
228,1.0,0.0011060371762141585,0.0011060371762141585,1e-04,0.25333333015441895,1.4807418584823608,1.4807418584823608
229,1.0,0.0011032996699213982,0.0011032996699213982,1e-04,0.2562222182750702,1.4757901430130005,1.4757901430130005
230,1.0,0.0011002571554854512,0.0011002571554854512,1e-04,0.25999999046325684,1.4708502292633057,1.4708502292633057
231,1.0,0.001097590196877718,0.001097590196877718,1e-04,0.26177778840065,1.4660638570785522,1.4660638570785522
232,1.0,0.0010943887755274773,0.0010943887755274773,1e-04,0.2644444406032562,1.4610989093780518,1.4610989093780518
233,1.0,0.0010915711754933,0.0010915711754933,1e-04,0.26733332872390747,1.4559553861618042,1.4559553861618042
234,1.0,0.0010883380891755223,0.0010883380891755223,1e-04,0.2702222168445587,1.450816035270691,1.450816035270691
235,1.0,0.0010854809079319239,0.0010854809079319239,1e-04,0.2746666669845581,1.4457558393478394,1.4457558393478394
236,1.0,0.0010827607475221157,0.0010827607475221157,1e-04,0.2782222330570221,1.4407542943954468,1.4407542943954468
237,1.0,0.0010797630529850721,0.0010797630529850721,1e-04,0.2804444432258606,1.4355990886688232,1.4355990886688232
238,1.0,0.00107677117921412,0.00107677117921412,1e-04,0.2826666533946991,1.4305410385131836,1.4305410385131836
239,1.0,0.0010740288998931646,0.0010740288998931646,1e-04,0.28422221541404724,1.4254863262176514,1.4254863262176514
240,1.0,0.001071026548743248,0.001071026548743248,1e-04,0.28600001335144043,1.4206069707870483,1.4206069707870483
241,1.0,0.0010682891588658094,0.0010682891588658094,1e-04,0.2879999876022339,1.4157838821411133,1.4157838821411133
242,1.0,0.0010655424557626247,0.0010655424557626247,1e-04,0.28866666555404663,1.4103671312332153,1.4103671312332153
243,1.0,0.0010626327712088823,0.0010626327712088823,1e-04,0.2913333475589752,1.4051731824874878,1.4051731824874878
244,1.0,0.0010596666252240539,0.0010596666252240539,1e-04,0.2933333218097687,1.400281310081482,1.400281310081482
245,1.0,0.0010568657889962196,0.0010568657889962196,1e-04,0.2953333258628845,1.3949849605560303,1.3949849605560303
246,1.0,0.001054036314599216,0.001054036314599216,1e-04,0.2971111238002777,1.389655590057373,1.389655590057373
247,1.0,0.00105132139287889,0.00105132139287889,1e-04,0.2980000078678131,1.3845391273498535,1.3845391273498535
248,1.0,0.0010484436061233282,0.0010484436061233282,1e-04,0.2997777760028839,1.3797566890716553,1.3797566890716553
249,1.0,0.001045536482706666,0.001045536482706666,1e-04,0.30044445395469666,1.374619483947754,1.374619483947754
250,1.0,0.0010428257519379258,0.0010428257519379258,1e-04,0.3028889000415802,1.3696192502975464,1.3696192502975464
251,1.0,0.001040153088979423,0.001040153088979423,1e-04,0.304666668176651,1.3644659519195557,1.3644659519195557
252,1.0,0.0010371914831921458,0.0010371914831921458,1e-04,0.30622223019599915,1.3592966794967651,1.3592966794967651
253,1.0,0.001034392393194139,0.001034392393194139,1e-04,0.30711111426353455,1.3541980981826782,1.3541980981826782
254,1.0,0.001031553721986711,0.001031553721986711,1e-04,0.30755555629730225,1.3489018678665161,1.3489018678665161
255,1.0,0.0010289797792211175,0.0010289797792211175,1e-04,0.3086666762828827,1.3437532186508179,1.3437532186508179
256,1.0,0.0010263483272865415,0.0010263483272865415,1e-04,0.30977776646614075,1.3388274908065796,1.3388274908065796
257,1.0,0.001023524790070951,0.001023524790070951,1e-04,0.31022220849990845,1.3338662385940552,1.3338662385940552
258,1.0,0.0010207275627180934,0.0010207275627180934,1e-04,0.31155556440353394,1.3287104368209839,1.3287104368209839
259,1.0,0.0010181148536503315,0.0010181148536503315,1e-04,0.3140000104904175,1.3235524892807007,1.3235524892807007
260,1.0,0.0010155312484130263,0.0010155312484130263,1e-04,0.3148888945579529,1.3187267780303955,1.3187267780303955
261,1.0,0.001012945082038641,0.001012945082038641,1e-04,0.3157777786254883,1.3137314319610596,1.3137314319610596
262,1.0,0.001010129926726222,0.001010129926726222,1e-04,0.3177777826786041,1.3086888790130615,1.3086888790130615
263,1.0,0.0010075306054204702,0.0010075306054204702,1e-04,0.3186666667461395,1.303910493850708,1.303910493850708
264,1.0,0.001004702877253294,0.001004702877253294,1e-04,0.3199999928474426,1.299242377281189,1.299242377281189
265,1.0,0.001002148725092411,0.001002148725092411,1e-04,0.320888876914978,1.2943284511566162,1.2943284511566162
266,1.0,0.0009993660496547818,0.0009993660496547818,1e-04,0.3233333230018616,1.2897124290466309,1.2897124290466309
267,1.0,0.0009966547368094325,0.0009966547368094325,1e-04,0.324444442987442,1.284892201423645,1.284892201423645
268,1.0,0.0009941293392330408,0.0009941293392330408,1e-04,0.3248888850212097,1.2798194885253906,1.2798194885253906
269,1.0,0.0009913169778883457,0.0009913169778883457,1e-04,0.3262222111225128,1.2749214172363281,1.2749214172363281
270,1.0,0.0009889412904158235,0.0009889412904158235,1e-04,0.328000009059906,1.2702934741973877,1.2702934741973877
271,1.0,0.000986236846074462,0.000986236846074462,1e-04,0.32955554127693176,1.2656946182250977,1.2656946182250977
272,1.0,0.00098369549959898,0.00098369549959898,1e-04,0.33133333921432495,1.2610981464385986,1.2610981464385986
273,1.0,0.000981068704277277,0.000981068704277277,1e-04,0.3324444591999054,1.256055235862732,1.256055235862732
274,1.0,0.0009783935965970159,0.0009783935965970159,1e-04,0.3351111114025116,1.2510966062545776,1.2510966062545776
275,1.0,0.0009755691862665117,0.0009755691862665117,1e-04,0.33755555748939514,1.2464150190353394,1.2464150190353394
276,1.0,0.0009729158482514322,0.0009729158482514322,1e-04,0.34111112356185913,1.2417981624603271,1.2417981624603271
277,1.0,0.000970401510130614,0.000970401510130614,1e-04,0.34333333373069763,1.237298607826233,1.237298607826233
278,1.0,0.0009678091155365109,0.0009678091155365109,1e-04,0.3453333377838135,1.2327464818954468,1.2327464818954468
279,1.0,0.0009651955915614963,0.0009651955915614963,1e-04,0.3468888998031616,1.2281421422958374,1.2281421422958374
280,1.0,0.0009627437102608383,0.0009627437102608383,1e-04,0.34933334589004517,1.2237666845321655,1.2237666845321655
281,1.0,0.0009602115605957806,0.0009602115605957806,1e-04,0.3531111180782318,1.21942138671875,1.21942138671875
282,1.0,0.0009574900614097714,0.0009574900614097714,1e-04,0.35511112213134766,1.214966893196106,1.214966893196106
283,1.0,0.0009547717636451125,0.0009547717636451125,1e-04,0.3575555682182312,1.210420846939087,1.210420846939087
284,1.0,0.000952289265114814,0.000952289265114814,1e-04,0.3619999885559082,1.205822467803955,1.205822467803955
285,1.0,0.0009498840663582087,0.0009498840663582087,1e-04,0.36444443464279175,1.2015708684921265,1.2015708684921265
286,1.0,0.0009475013357587159,0.0009475013357587159,1e-04,0.3686666786670685,1.1970067024230957,1.1970067024230957
287,1.0,0.000945015053730458,0.000945015053730458,1e-04,0.3737777769565582,1.1928637027740479,1.1928637027740479
288,1.0,0.0009426415199413896,0.0009426415199413896,1e-04,0.3782222270965576,1.188471794128418,1.188471794128418
289,1.0,0.0009401032002642751,0.0009401032002642751,1e-04,0.3831111192703247,1.1843949556350708,1.1843949556350708
290,1.0,0.0009377084788866341,0.0009377084788866341,1e-04,0.38733333349227905,1.1802527904510498,1.1802527904510498
291,1.0,0.0009354548528790474,0.0009354548528790474,1e-04,0.39088889956474304,1.1761358976364136,1.1761358976364136
292,1.0,0.0009328141459263861,0.0009328141459263861,1e-04,0.394222229719162,1.1721785068511963,1.1721785068511963
293,1.0,0.0009306782740168273,0.0009306782740168273,1e-04,0.39800000190734863,1.1683229207992554,1.1683229207992554
294,1.0,0.0009282930986955762,0.0009282930986955762,1e-04,0.4020000100135803,1.1642491817474365,1.1642491817474365
295,1.0,0.0009258480276912451,0.0009258480276912451,1e-04,0.4073333442211151,1.1603189706802368,1.1603189706802368
296,1.0,0.0009236200712621212,0.0009236200712621212,1e-04,0.4099999964237213,1.15615975856781,1.15615975856781
297,1.0,0.0009210926364175975,0.0009210926364175975,1e-04,0.414000004529953,1.152410864830017,1.152410864830017
298,1.0,0.0009187365649268031,0.0009187365649268031,1e-04,0.41644445061683655,1.148669958114624,1.148669958114624
299,1.0,0.0009163785143755376,0.0009163785143755376,1e-04,0.4211111068725586,1.144720435142517,1.144720435142517
300,1.0,0.0009138615569099784,0.0009138615569099784,1e-04,0.42711111903190613,1.140895128250122,1.140895128250122
301,1.0,0.0009115470456890762,0.0009115470456890762,1e-04,0.4313333332538605,1.1374807357788086,1.1374807357788086
302,1.0,0.000909089227207005,0.000909089227207005,1e-04,0.437333345413208,1.1338835954666138,1.1338835954666138
303,1.0,0.0009068380459211767,0.0009068380459211767,1e-04,0.4413333237171173,1.1303327083587646,1.1303327083587646
304,1.0,0.0009043769678100944,0.0009043769678100944,1e-04,0.44733333587646484,1.1268965005874634,1.1268965005874634
305,1.0,0.0009023395250551403,0.0009023395250551403,1e-04,0.4502222239971161,1.123299241065979,1.123299241065979
306,1.0,0.0008999053970910609,0.0008999053970910609,1e-04,0.4566666781902313,1.1198761463165283,1.1198761463165283
307,1.0,0.000897456135135144,0.000897456135135144,1e-04,0.46511110663414,1.1162309646606445,1.1162309646606445
308,1.0,0.000895128701813519,0.000895128701813519,1e-04,0.4731111228466034,1.1129201650619507,1.1129201650619507
309,1.0,0.000892797892447561,0.000892797892447561,1e-04,0.4779999852180481,1.1095837354660034,1.1095837354660034
310,1.0,0.0008904020651243627,0.0008904020651243627,1e-04,0.48311111330986023,1.1061795949935913,1.1061795949935913
311,1.0,0.0008882622350938618,0.0008882622350938618,1e-04,0.488444447517395,1.1032050848007202,1.1032050848007202
312,1.0,0.0008858258952386677,0.0008858258952386677,1e-04,0.49399998784065247,1.1000150442123413,1.1000150442123413
313,1.0,0.0008836691849865019,0.0008836691849865019,1e-04,0.49933332204818726,1.09665048122406,1.09665048122406
314,1.0,0.0008811581647023559,0.0008811581647023559,1e-04,0.5064444541931152,1.0935684442520142,1.0935684442520142
315,1.0,0.000879082246683538,0.000879082246683538,1e-04,0.515999972820282,1.090242624282837,1.090242624282837
316,1.0,0.0008766145911067724,0.0008766145911067724,1e-04,0.5246666669845581,1.087197184562683,1.087197184562683
317,1.0,0.0008745962986722589,0.0008745962986722589,1e-04,0.5342222452163696,1.0841050148010254,1.0841050148010254
318,1.0,0.0008723713108338416,0.0008723713108338416,1e-04,0.5413333177566528,1.0810794830322266,1.0810794830322266
319,1.0,0.0008701332262717187,0.0008701332262717187,1e-04,0.5502222180366516,1.0782755613327026,1.0782755613327026
320,1.0,0.0008679748862050474,0.0008679748862050474,1e-04,0.5575555562973022,1.0754934549331665,1.0754934549331665
321,1.0,0.0008660430321469903,0.0008660430321469903,1e-04,0.5673333406448364,1.072956919670105,1.072956919670105
322,1.0,0.0008638048893772066,0.0008638048893772066,1e-04,0.5777778029441833,1.0702083110809326,1.0702083110809326
323,1.0,0.0008616444538347423,0.0008616444538347423,1e-04,0.5860000252723694,1.0673693418502808,1.0673693418502808
324,1.0,0.0008593774400651455,0.0008593774400651455,1e-04,0.5962222218513489,1.0644233226776123,1.0644233226776123
325,1.0,0.0008570830686949193,0.0008570830686949193,1e-04,0.602222204208374,1.0615851879119873,1.0615851879119873
326,1.0,0.0008551187929697335,0.0008551187929697335,1e-04,0.6088888645172119,1.0589487552642822,1.0589487552642822
327,1.0,0.0008528130711056292,0.0008528130711056292,1e-04,0.6173333525657654,1.0563535690307617,1.0563535690307617
328,1.0,0.0008506483281962574,0.0008506483281962574,1e-04,0.6277777552604675,1.0537900924682617,1.0537900924682617
329,1.0,0.0008485685102641582,0.0008485685102641582,1e-04,0.6340000033378601,1.0512869358062744,1.0512869358062744
330,1.0,0.0008463235571980476,0.0008463235571980476,1e-04,0.6413333415985107,1.048688292503357,1.048688292503357
331,1.0,0.0008442163234576583,0.0008442163234576583,1e-04,0.6495555639266968,1.045982837677002,1.045982837677002
332,1.0,0.0008419955847784877,0.0008419955847784877,1e-04,0.6573333144187927,1.0434648990631104,1.0434648990631104
333,1.0,0.0008398268255405128,0.0008398268255405128,1e-04,0.6644444465637207,1.041159749031067,1.041159749031067
334,1.0,0.000837656029034406,0.000837656029034406,1e-04,0.6753333210945129,1.0385276079177856,1.0385276079177856
335,1.0,0.0008355837780982256,0.0008355837780982256,1e-04,0.683555543422699,1.0358883142471313,1.0358883142471313
336,1.0,0.0008336651371791959,0.0008336651371791959,1e-04,0.6897777915000916,1.0334010124206543,1.0334010124206543
337,1.0,0.0008313851431012154,0.0008313851431012154,1e-04,0.6959999799728394,1.0312390327453613,1.0312390327453613
338,1.0,0.0008293656865134835,0.0008293656865134835,1e-04,0.7055555582046509,1.0289560556411743,1.0289560556411743
339,1.0,0.0008271629922091961,0.0008271629922091961,1e-04,0.711555540561676,1.026642918586731,1.026642918586731
340,1.0,0.0008252366096712649,0.0008252366096712649,1e-04,0.7177777886390686,1.0241539478302002,1.0241539478302002
341,1.0,0.0008232361287809908,0.0008232361287809908,1e-04,0.7224444150924683,1.0219454765319824,1.0219454765319824
342,1.0,0.0008211545064114034,0.0008211545064114034,1e-04,0.7284444570541382,1.0193943977355957,1.0193943977355957
343,1.0,0.0008190600201487541,0.0008190600201487541,1e-04,0.7319999933242798,1.0169636011123657,1.0169636011123657
344,1.0,0.0008169013308361173,0.0008169013308361173,1e-04,0.7371110916137695,1.0147920846939087,1.0147920846939087
345,1.0,0.0008147518965415657,0.0008147518965415657,1e-04,0.741777777671814,1.0125459432601929,1.0125459432601929
346,1.0,0.0008124749874696136,0.0008124749874696136,1e-04,0.745555579662323,1.0105787515640259,1.0105787515640259
347,1.0,0.0008104625740088522,0.0008104625740088522,1e-04,0.7508888840675354,1.0085656642913818,1.0085656642913818
348,1.0,0.0008084261207841337,0.0008084261207841337,1e-04,0.7548888921737671,1.00665283203125,1.00665283203125
349,1.0,0.0008063124842010438,0.0008063124842010438,1e-04,0.757777750492096,1.0044361352920532,1.0044361352920532
350,1.0,0.0008041792898438871,0.0008041792898438871,1e-04,0.7617777585983276,1.0023607015609741,1.0023607015609741
351,1.0,0.0008023009286262095,0.0008023009286262095,1e-04,0.7648888826370239,1.0002846717834473,1.0002846717834473
352,1.0,0.0008001513197086751,0.0008001513197086751,1e-04,0.7666666507720947,0.9981467127799988,0.9981467127799988
353,1.0,0.000798122666310519,0.000798122666310519,1e-04,0.7699999809265137,0.9961320757865906,0.9961320757865906
354,1.0,0.0007962431409396231,0.0007962431409396231,1e-04,0.7726666927337646,0.9942887425422668,0.9942887425422668
355,1.0,0.0007942705997265875,0.0007942705997265875,1e-04,0.7766666412353516,0.9923855066299438,0.9923855066299438
356,1.0,0.0007922411314211786,0.0007922411314211786,1e-04,0.7782222032546997,0.9908250570297241,0.9908250570297241
357,1.0,0.0007904705125838518,0.0007904705125838518,1e-04,0.7802222371101379,0.9891262054443359,0.9891262054443359
358,1.0,0.000788270786870271,0.000788270786870271,1e-04,0.782444417476654,0.9874813556671143,0.9874813556671143
359,1.0,0.0007863393402658403,0.0007863393402658403,1e-04,0.7833333611488342,0.985680341720581,0.985680341720581
360,1.0,0.0007844203501008451,0.0007844203501008451,1e-04,0.7855555415153503,0.9836326837539673,0.9836326837539673
361,1.0,0.0007824883214198053,0.0007824883214198053,1e-04,0.7882221937179565,0.9816393256187439,0.9816393256187439
362,1.0,0.000780549249611795,0.000780549249611795,1e-04,0.7882221937179565,0.9798223972320557,0.9798223972320557
363,1.0,0.0007785775233060122,0.0007785775233060122,1e-04,0.7906666398048401,0.9781177043914795,0.9781177043914795
364,1.0,0.0007767321076244116,0.0007767321076244116,1e-04,0.7942222356796265,0.9760739803314209,0.9760739803314209
365,1.0,0.000774722604546696,0.000774722604546696,1e-04,0.7946666479110718,0.9743649959564209,0.9743649959564209
366,1.0,0.0007727141492068768,0.0007727141492068768,1e-04,0.7957777976989746,0.9726744890213013,0.9726744890213013
367,1.0,0.0007708438206464052,0.0007708438206464052,1e-04,0.79666668176651,0.971142590045929,0.971142590045929
368,1.0,0.0007690676720812917,0.0007690676720812917,1e-04,0.7975555658340454,0.9697026014328003,0.9697026014328003
369,1.0,0.0007671454222872853,0.0007671454222872853,1e-04,0.7993333339691162,0.9680670499801636,0.9680670499801636
370,1.0,0.0007653898792341352,0.0007653898792341352,1e-04,0.8006666898727417,0.9663456082344055,0.9663456082344055
371,1.0,0.0007634017383679748,0.0007634017383679748,1e-04,0.8022222518920898,0.9649000763893127,0.9649000763893127
372,1.0,0.000761540955863893,0.000761540955863893,1e-04,0.8026666641235352,0.9633133411407471,0.9633133411407471
373,1.0,0.0007596572395414114,0.0007596572395414114,1e-04,0.804444432258606,0.9618871808052063,0.9618871808052063
374,1.0,0.000757691275794059,0.000757691275794059,1e-04,0.8051111102104187,0.9601125121116638,0.9601125121116638
375,1.0,0.0007558385841548443,0.0007558385841548443,1e-04,0.8064444661140442,0.9585142135620117,0.9585142135620117
376,1.0,0.0007539691869169474,0.0007539691869169474,1e-04,0.8077777624130249,0.9569090604782104,0.9569090604782104
377,1.0,0.0007521776133216918,0.0007521776133216918,1e-04,0.8086666464805603,0.9556325674057007,0.9556325674057007
378,1.0,0.0007502706139348447,0.0007502706139348447,1e-04,0.8102222084999084,0.9539686441421509,0.9539686441421509
379,1.0,0.0007484916714020073,0.0007484916714020073,1e-04,0.8117777705192566,0.9526861906051636,0.9526861906051636
380,1.0,0.000746415404137224,0.000746415404137224,1e-04,0.812666654586792,0.9513771533966064,0.9513771533966064
381,1.0,0.0007445628871209919,0.0007445628871209919,1e-04,0.8140000104904175,0.9495506882667542,0.9495506882667542
382,1.0,0.0007427949458360672,0.0007427949458360672,1e-04,0.8146666884422302,0.9480230212211609,0.9480230212211609
383,1.0,0.0007411398692056537,0.0007411398692056537,1e-04,0.8146666884422302,0.9464043974876404,0.9464043974876404
384,1.0,0.0007393654086627066,0.0007393654086627066,1e-04,0.8159999847412109,0.9448172450065613,0.9448172450065613
385,1.0,0.0007376672001555562,0.0007376672001555562,1e-04,0.8173333406448364,0.9432638883590698,0.9432638883590698
386,1.0,0.0007358725997619331,0.0007358725997619331,1e-04,0.8175555467605591,0.9417842030525208,0.9417842030525208
387,1.0,0.0007339681033045053,0.0007339681033045053,1e-04,0.8184444308280945,0.9405527114868164,0.9405527114868164
388,1.0,0.0007322437595576048,0.0007322437595576048,1e-04,0.8186666369438171,0.9389348030090332,0.9389348030090332
389,1.0,0.0007303018355742097,0.0007303018355742097,1e-04,0.8191111087799072,0.9372700452804565,0.9372700452804565
390,1.0,0.0007286384352482855,0.0007286384352482855,1e-04,0.8195555806159973,0.9359321594238281,0.9359321594238281
391,1.0,0.0007268753251992166,0.0007268753251992166,1e-04,0.8195555806159973,0.9341847896575928,0.9341847896575928
392,1.0,0.0007251434144563973,0.0007251434144563973,1e-04,0.8202221989631653,0.932417631149292,0.932417631149292
393,1.0,0.0007232362404465675,0.0007232362404465675,1e-04,0.8204444646835327,0.9308463335037231,0.9308463335037231
394,1.0,0.0007215790683403611,0.0007215790683403611,1e-04,0.8206666707992554,0.9292371869087219,0.9292371869087219
395,1.0,0.0007196938968263566,0.0007196938968263566,1e-04,0.8202221989631653,0.9276202321052551,0.9276202321052551
396,1.0,0.000718126364517957,0.000718126364517957,1e-04,0.8204444646835327,0.9261093735694885,0.9261093735694885
397,1.0,0.0007163726259022951,0.0007163726259022951,1e-04,0.8202221989631653,0.924248456954956,0.924248456954956
398,1.0,0.0007145776762627065,0.0007145776762627065,1e-04,0.8204444646835327,0.9226294755935669,0.9226294755935669
399,1.0,0.000712836452294141,0.000712836452294141,1e-04,0.8211110830307007,0.9209640026092529,0.9209640026092529
400,1.0,0.0007110676961019635,0.0007110676961019635,1e-04,0.8215555548667908,0.9194713830947876,0.9194713830947876
401,1.0,0.0007093533640727401,0.0007093533640727401,1e-04,0.8222222328186035,0.9178910851478577,0.9178910851478577
402,1.0,0.0007076914771459997,0.0007076914771459997,1e-04,0.8224444389343262,0.9160398244857788,0.9160398244857788
403,1.0,0.0007060613133944571,0.0007060613133944571,1e-04,0.8224444389343262,0.9142481684684753,0.9142481684684753
404,1.0,0.0007043569348752499,0.0007043569348752499,1e-04,0.8224444389343262,0.9123193621635437,0.9123193621635437
405,1.0,0.000702628749422729,0.000702628749422729,1e-04,0.8222222328186035,0.9106219410896301,0.9106219410896301
406,1.0,0.0007008679094724357,0.0007008679094724357,1e-04,0.8228889107704163,0.9086403846740723,0.9086403846740723
407,1.0,0.0006991554982960224,0.0006991554982960224,1e-04,0.8233333230018616,0.9067124724388123,0.9067124724388123
408,1.0,0.0006975805736146867,0.0006975805736146867,1e-04,0.8233333230018616,0.9046125411987305,0.9046125411987305
409,1.0,0.0006959090824238956,0.0006959090824238956,1e-04,0.8233333230018616,0.9029061794281006,0.9029061794281006
410,1.0,0.0006941770552657545,0.0006941770552657545,1e-04,0.8237777948379517,0.9010083675384521,0.9010083675384521
411,1.0,0.0006925109191797674,0.0006925109191797674,1e-04,0.8240000009536743,0.8988611102104187,0.8988611102104187
412,1.0,0.0006908749346621335,0.0006908749346621335,1e-04,0.8237777948379517,0.896619439125061,0.896619439125061
413,1.0,0.0006892862729728222,0.0006892862729728222,1e-04,0.8240000009536743,0.8944753408432007,0.8944753408432007
414,1.0,0.0006876981351524591,0.0006876981351524591,1e-04,0.824222207069397,0.8922882080078125,0.8922882080078125
415,1.0,0.0006861015572212636,0.0006861015572212636,1e-04,0.824222207069397,0.8902295827865601,0.8902295827865601
416,1.0,0.0006845530006103218,0.0006845530006103218,1e-04,0.8240000009536743,0.8881234526634216,0.8881234526634216
417,1.0,0.0006828511250205338,0.0006828511250205338,1e-04,0.8244444727897644,0.8854264616966248,0.8854264616966248
418,1.0,0.0006812725332565606,0.0006812725332565606,1e-04,0.824222207069397,0.8830017447471619,0.8830017447471619
419,1.0,0.0006798251415602863,0.0006798251415602863,1e-04,0.824222207069397,0.8806436061859131,0.8806436061859131
420,1.0,0.0006782718701288104,0.0006782718701288104,1e-04,0.8240000009536743,0.8784836530685425,0.8784836530685425
421,1.0,0.0006764454883523285,0.0006764454883523285,1e-04,0.8240000009536743,0.8759387731552124,0.8759387731552124
422,1.0,0.000674986862577498,0.000674986862577498,1e-04,0.824222207069397,0.873552680015564,0.873552680015564
423,1.0,0.0006733395857736468,0.0006733395857736468,1e-04,0.824222207069397,0.8707919120788574,0.8707919120788574
424,1.0,0.00067184551153332,0.00067184551153332,1e-04,0.8251110911369324,0.8680081367492676,0.8680081367492676
425,1.0,0.0006701847887597978,0.0006701847887597978,1e-04,0.8255555629730225,0.865233302116394,0.865233302116394
426,1.0,0.0006685605039820075,0.0006685605039820075,1e-04,0.8257777690887451,0.8624148964881897,0.8624148964881897
427,1.0,0.0006669310969300568,0.0006669310969300568,1e-04,0.8264444470405579,0.8595093488693237,0.8595093488693237
428,1.0,0.0006654122262261808,0.0006654122262261808,1e-04,0.8273333311080933,0.8566828370094299,0.8566828370094299
429,1.0,0.0006637959741055965,0.0006637959741055965,1e-04,0.8275555372238159,0.8539171814918518,0.8539171814918518
430,1.0,0.0006623381050303578,0.0006623381050303578,1e-04,0.828000009059906,0.850948691368103,0.850948691368103
431,1.0,0.0006606861716136336,0.0006606861716136336,1e-04,0.828000009059906,0.8482871055603027,0.8482871055603027
432,1.0,0.0006590521661564708,0.0006590521661564708,1e-04,0.8282222151756287,0.8455241322517395,0.8455241322517395
433,1.0,0.0006577128078788519,0.0006577128078788519,1e-04,0.8275555372238159,0.8426845073699951,0.8426845073699951
434,1.0,0.0006561953923664987,0.0006561953923664987,1e-04,0.8282222151756287,0.8399152755737305,0.8399152755737305
435,1.0,0.0006546895601786673,0.0006546895601786673,1e-04,0.8284444212913513,0.8368399143218994,0.8368399143218994
436,1.0,0.0006530688842758536,0.0006530688842758536,1e-04,0.8286666870117188,0.8337822556495667,0.8337822556495667
437,1.0,0.0006516310968436301,0.0006516310968436301,1e-04,0.8288888931274414,0.8308247923851013,0.8308247923851013
438,1.0,0.0006500444142147899,0.0006500444142147899,1e-04,0.8291110992431641,0.8277848958969116,0.8277848958969116
439,1.0,0.0006484645418822765,0.0006484645418822765,1e-04,0.8297777771949768,0.8245213031768799,0.8245213031768799
440,1.0,0.0006470181397162378,0.0006470181397162378,1e-04,0.8304444551467896,0.8213023543357849,0.8213023543357849
441,1.0,0.0006454949616454542,0.0006454949616454542,1e-04,0.8302222490310669,0.8179342150688171,0.8179342150688171
442,1.0,0.0006440439610742033,0.0006440439610742033,1e-04,0.8299999833106995,0.8145932555198669,0.8145932555198669
443,1.0,0.0006425941246561706,0.0006425941246561706,1e-04,0.8302222490310669,0.8110877871513367,0.8110877871513367
444,1.0,0.0006410680362023413,0.0006410680362023413,1e-04,0.8308888673782349,0.8075999617576599,0.8075999617576599
445,1.0,0.0006395711097866297,0.0006395711097866297,1e-04,0.8317777514457703,0.8039403557777405,0.8039403557777405
446,1.0,0.0006380861741490662,0.0006380861741490662,1e-04,0.8322222232818604,0.8000218272209167,0.8000218272209167
447,1.0,0.0006367051391862333,0.0006367051391862333,1e-04,0.8333333134651184,0.7964341044425964,0.7964341044425964
448,1.0,0.0006354308570735157,0.0006354308570735157,1e-04,0.8339999914169312,0.792446494102478,0.792446494102478
449,1.0,0.0006336079095490277,0.0006336079095490277,1e-04,0.8346666693687439,0.7884830832481384,0.7884830832481384
450,1.0,0.0006322465487755835,0.0006322465487755835,1e-04,0.8353333473205566,0.7848870158195496,0.7848870158195496
451,1.0,0.0006308694137260318,0.0006308694137260318,1e-04,0.8355555534362793,0.7810907363891602,0.7810907363891602
452,1.0,0.0006295231869444251,0.0006295231869444251,1e-04,0.8360000252723694,0.7774578928947449,0.7774578928947449
453,1.0,0.0006279440131038427,0.0006279440131038427,1e-04,0.8364444375038147,0.7736026048660278,0.7736026048660278
454,1.0,0.0006266110576689243,0.0006266110576689243,1e-04,0.8364444375038147,0.7696220874786377,0.7696220874786377
455,1.0,0.0006251125014387071,0.0006251125014387071,1e-04,0.8366666436195374,0.7655856013298035,0.7655856013298035
456,1.0,0.0006237391498871148,0.0006237391498871148,1e-04,0.8368889093399048,0.7616912126541138,0.7616912126541138
457,1.0,0.0006221908843144774,0.0006221908843144774,1e-04,0.8373333215713501,0.7577021718025208,0.7577021718025208
458,1.0,0.0006207158439792693,0.0006207158439792693,1e-04,0.8377777934074402,0.7535503506660461,0.7535503506660461
459,1.0,0.0006192278815433383,0.0006192278815433383,1e-04,0.8386666774749756,0.7494572997093201,0.7494572997093201
460,1.0,0.000617766403593123,0.000617766403593123,1e-04,0.8397777676582336,0.7455655932426453,0.7455655932426453
461,1.0,0.0006164751830510795,0.0006164751830510795,1e-04,0.8402222394943237,0.7415115237236023,0.7415115237236023
462,1.0,0.0006150642293505371,0.0006150642293505371,1e-04,0.840666651725769,0.7371907830238342,0.7371907830238342
463,1.0,0.0006135814473964274,0.0006135814473964274,1e-04,0.840666651725769,0.7329487204551697,0.7329487204551697
464,1.0,0.0006123114144429564,0.0006123114144429564,1e-04,0.8404444456100464,0.7291153073310852,0.7291153073310852
465,1.0,0.0006108844536356628,0.0006108844536356628,1e-04,0.840666651725769,0.7250875234603882,0.7250875234603882
466,1.0,0.0006095313001424074,0.0006095313001424074,1e-04,0.8411111235618591,0.7209440469741821,0.7209440469741821
467,1.0,0.0006081629544496536,0.0006081629544496536,1e-04,0.8411111235618591,0.7164430618286133,0.7164430618286133
468,1.0,0.0006067584617994726,0.0006067584617994726,1e-04,0.8408889174461365,0.7123047113418579,0.7123047113418579
469,1.0,0.0006054085679352283,0.0006054085679352283,1e-04,0.8415555357933044,0.7080675959587097,0.7080675959587097
470,1.0,0.0006040129228495061,0.0006040129228495061,1e-04,0.8424444198608398,0.7036145925521851,0.7036145925521851
471,1.0,0.0006026620976626873,0.0006026620976626873,1e-04,0.8428888916969299,0.6995006203651428,0.6995006203651428
472,1.0,0.00060131965437904,0.00060131965437904,1e-04,0.8428888916969299,0.6950409412384033,0.6950409412384033
473,1.0,0.0005999343120492995,0.0005999343120492995,1e-04,0.8426666855812073,0.6907609701156616,0.6907609701156616
474,1.0,0.0005986904143355787,0.0005986904143355787,1e-04,0.8433333039283752,0.6866262555122375,0.6866262555122375
475,1.0,0.0005974571104161441,0.0005974571104161441,1e-04,0.843999981880188,0.682336688041687,0.682336688041687
476,1.0,0.0005960267735645175,0.0005960267735645175,1e-04,0.8442222476005554,0.6783135533332825,0.6783135533332825
477,1.0,0.0005947099416516721,0.0005947099416516721,1e-04,0.8444444537162781,0.6744585037231445,0.6744585037231445
478,1.0,0.0005934559158049524,0.0005934559158049524,1e-04,0.8448888659477234,0.669996976852417,0.669996976852417
479,1.0,0.000592085241805762,0.000592085241805762,1e-04,0.8451111316680908,0.6656330823898315,0.6656330823898315
480,1.0,0.0005907499580644071,0.0005907499580644071,1e-04,0.8453333377838135,0.6614951491355896,0.6614951491355896
481,1.0,0.0005895142676308751,0.0005895142676308751,1e-04,0.8460000157356262,0.6570761203765869,0.6570761203765869
482,1.0,0.0005882651312276721,0.0005882651312276721,1e-04,0.8471111059188843,0.6528111696243286,0.6528111696243286
483,1.0,0.0005868544685654342,0.0005868544685654342,1e-04,0.8473333120346069,0.6483079195022583,0.6483079195022583
484,1.0,0.0005854191840626299,0.0005854191840626299,1e-04,0.8482221961021423,0.6440054774284363,0.6440054774284363
485,1.0,0.0005841227830387652,0.0005841227830387652,1e-04,0.8488888740539551,0.639736533164978,0.639736533164978
486,1.0,0.0005828409339301288,0.0005828409339301288,1e-04,0.8497777581214905,0.6354334354400635,0.6354334354400635
487,1.0,0.0005814877222292125,0.0005814877222292125,1e-04,0.8502222299575806,0.6312935948371887,0.6312935948371887
488,1.0,0.0005802231607958674,0.0005802231607958674,1e-04,0.851111114025116,0.6270300149917603,0.6270300149917603
489,1.0,0.0005788914277218282,0.0005788914277218282,1e-04,0.8513333201408386,0.6224640011787415,0.6224640011787415
490,1.0,0.0005776474718004465,0.0005776474718004465,1e-04,0.852222204208374,0.6181468367576599,0.6181468367576599
491,1.0,0.0005763443768955767,0.0005763443768955767,1e-04,0.8531110882759094,0.6138591766357422,0.6138591766357422
492,1.0,0.0005750659620389342,0.0005750659620389342,1e-04,0.8531110882759094,0.6094807982444763,0.6094807982444763
493,1.0,0.0005737630417570472,0.0005737630417570472,1e-04,0.8531110882759094,0.6052420139312744,0.6052420139312744
494,1.0,0.0005724991206079721,0.0005724991206079721,1e-04,0.8531110882759094,0.6007921099662781,0.6007921099662781
495,1.0,0.0005713326972909272,0.0005713326972909272,1e-04,0.8539999723434448,0.5964298248291016,0.5964298248291016
496,1.0,0.0005700573092326522,0.0005700573092326522,1e-04,0.8544444441795349,0.5921841859817505,0.5921841859817505
497,1.0,0.0005688603851012886,0.0005688603851012886,1e-04,0.8553333282470703,0.5877470970153809,0.5877470970153809
498,1.0,0.0005675326101481915,0.0005675326101481915,1e-04,0.8560000061988831,0.5835434198379517,0.5835434198379517
499,1.0,0.0005663002375513315,0.0005663002375513315,1e-04,0.8566666841506958,0.5791217684745789,0.5791217684745789
500,1.0,0.000564952555578202,0.000564952555578202,1e-04,0.8573333621025085,0.5747218132019043,0.5747218132019043
501,1.0,0.0005638275761157274,0.0005638275761157274,1e-04,0.8579999804496765,0.5701591372489929,0.5701591372489929
502,1.0,0.0005626780330203474,0.0005626780330203474,1e-04,0.8584444522857666,0.5657622814178467,0.5657622814178467
503,1.0,0.0005612630629912019,0.0005612630629912019,1e-04,0.8597777485847473,0.5612205862998962,0.5612205862998962
504,1.0,0.0005601950106211007,0.0005601950106211007,1e-04,0.8608888983726501,0.5569599270820618,0.5569599270820618
505,1.0,0.0005589071661233902,0.0005589071661233902,1e-04,0.8611111044883728,0.5527292490005493,0.5527292490005493
506,1.0,0.000557741557713598,0.000557741557713598,1e-04,0.8617777824401855,0.5482434630393982,0.5482434630393982
507,1.0,0.0005564683815464377,0.0005564683815464377,1e-04,0.8628888726234436,0.544021725654602,0.544021725654602
508,1.0,0.0005553549854084849,0.0005553549854084849,1e-04,0.863111138343811,0.5401628017425537,0.5401628017425537
509,1.0,0.0005540920537896454,0.0005540920537896454,1e-04,0.8642222285270691,0.5358371138572693,0.5358371138572693
510,1.0,0.000552899029571563,0.000552899029571563,1e-04,0.8642222285270691,0.5316669344902039,0.5316669344902039
511,1.0,0.0005516542587429285,0.0005516542587429285,1e-04,0.8644444346427917,0.5274250507354736,0.5274250507354736
512,1.0,0.0005503817810676992,0.0005503817810676992,1e-04,0.8651111125946045,0.5232597589492798,0.5232597589492798
513,1.0,0.0005492990021593869,0.0005492990021593869,1e-04,0.8657777905464172,0.5192279815673828,0.5192279815673828
514,1.0,0.0005480007966980338,0.0005480007966980338,1e-04,0.867111086845398,0.5150060653686523,0.5150060653686523
515,1.0,0.0005468701128847897,0.0005468701128847897,1e-04,0.8673333525657654,0.5111263394355774,0.5111263394355774
516,1.0,0.000545678602065891,0.000545678602065891,1e-04,0.8684444427490234,0.5070120692253113,0.5070120692253113
517,1.0,0.000544566719327122,0.000544566719327122,1e-04,0.8688889145851135,0.5030018091201782,0.5030018091201782
518,1.0,0.0005433726473711431,0.0005433726473711431,1e-04,0.8693333268165588,0.49883073568344116,0.49883073568344116
519,1.0,0.0005421414389275014,0.0005421414389275014,1e-04,0.8706666827201843,0.4948696196079254,0.4948696196079254
520,1.0,0.0005410305457189679,0.0005410305457189679,1e-04,0.8731111288070679,0.4910244643688202,0.4910244643688202
521,1.0,0.0005398742505349219,0.0005398742505349219,1e-04,0.8733333349227905,0.4871041774749756,0.4871041774749756
522,1.0,0.0005388417048379779,0.0005388417048379779,1e-04,0.8744444251060486,0.48317062854766846,0.48317062854766846
523,1.0,0.0005378489731810987,0.0005378489731810987,1e-04,0.875333309173584,0.47922655940055847,0.47922655940055847
524,1.0,0.0005365455290302634,0.0005365455290302634,1e-04,0.8762221932411194,0.47517311573028564,0.47517311573028564
525,1.0,0.0005354497116059065,0.0005354497116059065,1e-04,0.8764444589614868,0.47133806347846985,0.47133806347846985
526,1.0,0.0005343093653209507,0.0005343093653209507,1e-04,0.8773333430290222,0.46758583188056946,0.46758583188056946
527,1.0,0.0005330892745405436,0.0005330892745405436,1e-04,0.878000020980835,0.46376702189445496,0.46376702189445496
528,1.0,0.0005319459596648812,0.0005319459596648812,1e-04,0.8788889050483704,0.4599536061286926,0.4599536061286926
529,1.0,0.00053074472816661,0.00053074472816661,1e-04,0.8793333172798157,0.45617181062698364,0.45617181062698364
530,1.0,0.0005295895389281213,0.0005295895389281213,1e-04,0.8804444670677185,0.4524471163749695,0.4524471163749695
531,1.0,0.0005284814978949726,0.0005284814978949726,1e-04,0.8813333511352539,0.4487530291080475,0.4487530291080475
532,1.0,0.0005273681599646807,0.0005273681599646807,1e-04,0.8817777633666992,0.4450734555721283,0.4450734555721283
533,1.0,0.0005262646591290832,0.0005262646591290832,1e-04,0.882444441318512,0.44144460558891296,0.44144460558891296
534,1.0,0.0005250920075923204,0.0005250920075923204,1e-04,0.8840000033378601,0.43794357776641846,0.43794357776641846
535,1.0,0.0005240102182142437,0.0005240102182142437,1e-04,0.8848888874053955,0.43427982926368713,0.43427982926368713
536,1.0,0.0005228967638686299,0.0005228967638686299,1e-04,0.8853333592414856,0.43062305450439453,0.43062305450439453
537,1.0,0.0005219174781814218,0.0005219174781814218,1e-04,0.8864444494247437,0.4271334707736969,0.4271334707736969
538,1.0,0.0005208233487792313,0.0005208233487792313,1e-04,0.886222243309021,0.42384248971939087,0.42384248971939087
539,1.0,0.0005195843405090272,0.0005195843405090272,1e-04,0.886888861656189,0.42063480615615845,0.42063480615615845
540,1.0,0.000518387125339359,0.000518387125339359,1e-04,0.887333333492279,0.4172522723674774,0.4172522723674774
541,1.0,0.0005174162797629833,0.0005174162797629833,1e-04,0.8880000114440918,0.41394704580307007,0.41394704580307007
542,1.0,0.0005163107998669147,0.0005163107998669147,1e-04,0.8888888955116272,0.4107483923435211,0.4107483923435211
543,1.0,0.0005152217345312238,0.0005152217345312238,1e-04,0.8893333077430725,0.4075359106063843,0.4075358808040619
544,1.0,0.0005140824941918254,0.0005140824941918254,1e-04,0.8899999856948853,0.404248982667923,0.404248982667923
545,1.0,0.0005130649660713971,0.0005130649660713971,1e-04,0.8902222514152527,0.4013827443122864,0.4013827443122864
546,1.0,0.0005119144916534424,0.0005119144916534424,1e-04,0.8908888697624207,0.39829760789871216,0.39829760789871216
547,1.0,0.0005109143676236272,0.0005109143676236272,1e-04,0.8920000195503235,0.39541077613830566,0.39541077613830566
548,1.0,0.0005097993416711688,0.0005097993416711688,1e-04,0.8924444317817688,0.39245298504829407,0.39245298504829407
549,1.0,0.0005088147590868175,0.0005088147590868175,1e-04,0.8935555815696716,0.3897126615047455,0.3897126615047455
550,1.0,0.0005076332599855959,0.0005076332599855959,1e-04,0.8939999938011169,0.38700005412101746,0.38700005412101746
551,1.0,0.0005066888406872749,0.0005066888406872749,1e-04,0.8948888778686523,0.3842211365699768,0.3842211365699768
552,1.0,0.0005057085072621703,0.0005057085072621703,1e-04,0.8964444398880005,0.38140949606895447,0.38140949606895447
553,1.0,0.0005046261940151453,0.0005046261940151453,1e-04,0.8982222080230713,0.3787599205970764,0.3787599205970764
554,1.0,0.0005036198999732733,0.0005036198999732733,1e-04,0.8999999761581421,0.37621021270751953,0.37621021270751953
555,1.0,0.0005026336875744164,0.0005026336875744164,1e-04,0.9011111259460449,0.3736351430416107,0.3736351430416107
556,1.0,0.000501602073200047,0.000501602073200047,1e-04,0.9026666879653931,0.3711310625076294,0.3711310625076294
557,1.0,0.0005004773265682161,0.0005004773265682161,1e-04,0.9037777781486511,0.36855649948120117,0.36855649948120117
558,1.0,0.0004994424525648355,0.0004994424525648355,1e-04,0.9042222499847412,0.3663020133972168,0.3663020133972168
559,1.0,0.0004984564729966223,0.0004984564729966223,1e-04,0.9055555462837219,0.36393308639526367,0.36393308639526367
560,1.0,0.0004974702023901045,0.0004974702023901045,1e-04,0.9062222242355347,0.36168813705444336,0.36168813705444336
561,1.0,0.0004965150146745145,0.0004965150146745145,1e-04,0.9068889021873474,0.359520822763443,0.359520822763443
562,1.0,0.0004954842734150589,0.0004954842734150589,1e-04,0.9084444642066956,0.3574550151824951,0.3574550151824951
563,1.0,0.0004943392123095691,0.0004943392123095691,1e-04,0.9091110825538635,0.3554096221923828,0.3554096221923828
564,1.0,0.00049346819287166,0.00049346819287166,1e-04,0.9097777605056763,0.35331466794013977,0.35331466794013977
565,1.0,0.0004922702210023999,0.0004922702210023999,1e-04,0.9102222323417664,0.3513677716255188,0.3513677716255188
566,1.0,0.0004912952426820993,0.0004912952426820993,1e-04,0.910444438457489,0.34932824969291687,0.34932824969291687
567,1.0,0.0004903636290691793,0.0004903636290691793,1e-04,0.9113333225250244,0.3473697006702423,0.3473697006702423
568,1.0,0.0004892919096164405,0.0004892919096164405,1e-04,0.9120000004768372,0.34562551975250244,0.34562551975250244
569,1.0,0.0004881800268776715,0.0004881800268776715,1e-04,0.9122222065925598,0.3439148962497711,0.3439148962497711
570,1.0,0.00048725807573646307,0.00048725807573646307,1e-04,0.9124444723129272,0.34233683347702026,0.34233683347702026
571,1.0,0.00048608527868054807,0.00048608527868054807,1e-04,0.9131110906600952,0.3406819999217987,0.3406819999217987
572,1.0,0.00048511233762837946,0.00048511233762837946,1e-04,0.9139999747276306,0.3391130864620209,0.3391130864620209
573,1.0,0.0004839599132537842,0.0004839599132537842,1e-04,0.914222240447998,0.3375043272972107,0.3375043272972107
574,1.0,0.0004830063262488693,0.0004830063262488693,1e-04,0.9146666526794434,0.33613327145576477,0.33613327145576477
575,1.0,0.0004820721806026995,0.0004820721806026995,1e-04,0.9153333306312561,0.334736168384552,0.334736168384552
576,1.0,0.0004811058461200446,0.0004811058461200446,1e-04,0.9155555367469788,0.3334169387817383,0.3334169387817383
577,1.0,0.00048026113654486835,0.00048026113654486835,1e-04,0.9157778024673462,0.3320847451686859,0.3320847451686859
578,1.0,0.00047931153676472604,0.00047931153676472604,1e-04,0.9168888926506042,0.3308298587799072,0.3308298587799072
579,1.0,0.00047843955690041184,0.00047843955690041184,1e-04,0.9177777767181396,0.3295834958553314,0.3295834958553314
580,1.0,0.00047729272046126425,0.00047729272046126425,1e-04,0.9182222485542297,0.3283562958240509,0.3283562958240509
581,1.0,0.00047645793529227376,0.00047645793529227376,1e-04,0.9188888669013977,0.32721343636512756,0.32721343636512756
582,1.0,0.0004755149129778147,0.0004755149129778147,1e-04,0.9193333387374878,0.32606327533721924,0.32606327533721924
583,1.0,0.00047456109314225614,0.00047456109314225614,1e-04,0.9206666946411133,0.3249843418598175,0.3249843418598175
584,1.0,0.0004735155089292675,0.0004735155089292675,1e-04,0.9215555787086487,0.32403790950775146,0.32403790950775146
585,1.0,0.0004725817416328937,0.0004725817416328937,1e-04,0.9213333129882812,0.3230939507484436,0.3230939507484436
586,1.0,0.0004717415140476078,0.0004717415140476078,1e-04,0.9217777848243713,0.32217925786972046,0.32217925786972046
587,1.0,0.00047080390504561365,0.00047080390504561365,1e-04,0.9226666688919067,0.3213554620742798,0.3213554620742798
588,1.0,0.00046982092317193747,0.00046982092317193747,1e-04,0.9235555529594421,0.32055965065956116,0.32055965065956116
589,1.0,0.0004687823820859194,0.0004687823820859194,1e-04,0.9240000247955322,0.31970545649528503,0.31970545649528503
590,1.0,0.0004679779231082648,0.0004679779231082648,1e-04,0.9246666431427002,0.31893089413642883,0.31893089413642883
591,1.0,0.0004670702328439802,0.0004670702328439802,1e-04,0.9246666431427002,0.3181881010532379,0.3181881010532379
592,1.0,0.00046617770567536354,0.00046617770567536354,1e-04,0.9246666431427002,0.3175199627876282,0.3175199627876282
593,1.0,0.00046531009138561785,0.00046531009138561785,1e-04,0.9248889088630676,0.3168535828590393,0.3168535828590393
594,1.0,0.0004644162836484611,0.0004644162836484611,1e-04,0.9251111149787903,0.31630977988243103,0.31630977988243103
595,1.0,0.0004634702345356345,0.0004634702345356345,1e-04,0.9251111149787903,0.3157317638397217,0.3157317638397217
596,1.0,0.00046245253179222345,0.00046245253179222345,1e-04,0.9246666431427002,0.3152209222316742,0.3152209222316742
597,1.0,0.0004615547659341246,0.0004615547659341246,1e-04,0.9251111149787903,0.31471961736679077,0.31471961736679077
598,1.0,0.00046051316894590855,0.00046051316894590855,1e-04,0.9253333210945129,0.31431207060813904,0.31431207060813904
599,1.0,0.0004595768987201154,0.0004595768987201154,1e-04,0.9251111149787903,0.3138778805732727,0.3138778805732727
600,1.0,0.00045859950478188694,0.00045859950478188694,1e-04,0.9255555272102356,0.3135092854499817,0.3135092854499817
601,1.0,0.0004575943457894027,0.0004575943457894027,1e-04,0.9262222051620483,0.31316077709198,0.31316077709198
602,1.0,0.00045673639397136867,0.00045673639397136867,1e-04,0.9266666769981384,0.31285083293914795,0.31285083293914795
603,1.0,0.0004557935462798923,0.0004557935462798923,1e-04,0.9275555610656738,0.3125554323196411,0.3125554323196411
604,1.0,0.0004548647557385266,0.0004548647557385266,1e-04,0.9279999732971191,0.31231486797332764,0.31231486797332764
605,1.0,0.0004540131485555321,0.0004540131485555321,1e-04,0.9284444451332092,0.3120839297771454,0.3120839297771454
606,1.0,0.0004531028971541673,0.0004531028971541673,1e-04,0.9282222390174866,0.31181201338768005,0.31181201338768005
607,1.0,0.00045229357783682644,0.00045229357783682644,1e-04,0.9282222390174866,0.31159231066703796,0.31159231066703796
608,1.0,0.0004513871972449124,0.0004513871972449124,1e-04,0.9286666512489319,0.31144970655441284,0.31144970655441284
609,1.0,0.0004504324169829488,0.0004504324169829488,1e-04,0.9286666512489319,0.31132689118385315,0.31132689118385315
610,1.0,0.00044951963354833424,0.00044951963354833424,1e-04,0.9293333292007446,0.3111737370491028,0.3111737370491028
611,1.0,0.00044863848597742617,0.00044863848597742617,1e-04,0.9293333292007446,0.3110578954219818,0.3110578954219818
612,1.0,0.000447766826255247,0.000447766826255247,1e-04,0.9297778010368347,0.3109318017959595,0.3109318017959595
613,1.0,0.0004468171682674438,0.0004468171682674438,1e-04,0.9297778010368347,0.3108351230621338,0.3108351230621338
614,1.0,0.00044597082887776196,0.00044597082887776196,1e-04,0.9297778010368347,0.31077373027801514,0.31077373027801514
615,1.0,0.0004450808046385646,0.0004450808046385646,1e-04,0.9295555353164673,0.31070438027381897,0.31070438027381897
616,1.0,0.0004442102217581123,0.0004442102217581123,1e-04,0.9293333292007446,0.31064003705978394,0.31064003705978394
617,1.0,0.00044344368507154286,0.00044344368507154286,1e-04,0.9293333292007446,0.31058862805366516,0.31058862805366516
618,1.0,0.0004426334926392883,0.0004426334926392883,1e-04,0.9297778010368347,0.31054913997650146,0.31054913997650146
619,1.0,0.0004418255412019789,0.0004418255412019789,1e-04,0.9300000071525574,0.31055548787117004,0.31055548787117004
620,1.0,0.00044089765287935734,0.00044089765287935734,1e-04,0.9308888912200928,0.3105655908584595,0.3105655908584595
621,1.0,0.00044006123789586127,0.00044006123789586127,1e-04,0.9308888912200928,0.31058844923973083,0.31058844923973083
622,1.0,0.0004393022391013801,0.0004393022391013801,1e-04,0.9308888912200928,0.3106333017349243,0.3106333017349243
623,1.0,0.00043851436930708587,0.00043851436930708587,1e-04,0.9306666851043701,0.31066638231277466,0.31066638231277466
624,1.0,0.00043763351277448237,0.00043763351277448237,1e-04,0.9308888912200928,0.310758501291275,0.310758501291275
625,1.0,0.00043680137605406344,0.00043680137605406344,1e-04,0.9311110973358154,0.31079670786857605,0.31079670786857605
626,1.0,0.00043605727842077613,0.00043605727842077613,1e-04,0.9313333630561829,0.31090232729911804,0.31090232729911804
627,1.0,0.00043526862282305956,0.00043526862282305956,1e-04,0.9317777752876282,0.3109990060329437,0.3109990060329437
628,1.0,0.0004341835156083107,0.0004341835156083107,1e-04,0.9315555691719055,0.3110807240009308,0.3110807240009308
629,1.0,0.0004333210818003863,0.0004333210818003863,1e-04,0.9317777752876282,0.31121551990509033,0.31121551990509033
630,1.0,0.0004325326008256525,0.0004325326008256525,1e-04,0.9317777752876282,0.3113211393356323,0.3113211393356323
631,1.0,0.00043157924665138125,0.00043157924665138125,1e-04,0.9317777752876282,0.31143614649772644,0.31143614649772644
632,1.0,0.000430701591540128,0.000430701591540128,1e-04,0.9322222471237183,0.31158068776130676,0.31158068776130676
633,1.0,0.0004298684070818126,0.0004298684070818126,1e-04,0.9322222471237183,0.3117106258869171,0.3117106258869171
634,1.0,0.0004290392971597612,0.0004290392971597612,1e-04,0.9322222471237183,0.31187036633491516,0.31187036633491516
635,1.0,0.000428210711106658,0.000428210711106658,1e-04,0.9319999814033508,0.31201425194740295,0.31201425194740295
636,1.0,0.00042744982056319714,0.00042744982056319714,1e-04,0.9322222471237183,0.31217169761657715,0.31217169761657715
637,1.0,0.00042652638512663543,0.00042652638512663543,1e-04,0.9326666593551636,0.31234949827194214,0.31234949827194214
638,1.0,0.00042578743887133896,0.00042578743887133896,1e-04,0.9331111311912537,0.31253066658973694,0.31253066658973694
639,1.0,0.00042495489469729364,0.00042495489469729364,1e-04,0.9331111311912537,0.3127114772796631,0.3127114772796631
640,1.0,0.00042404825217090547,0.00042404825217090547,1e-04,0.9333333373069763,0.31288325786590576,0.31288325786590576
641,1.0,0.0004233783984091133,0.0004233783984091133,1e-04,0.9333333373069763,0.3131040930747986,0.3131040930747986
642,1.0,0.0004225657903589308,0.0004225657903589308,1e-04,0.9333333373069763,0.3133111894130707,0.3133111894130707
643,1.0,0.0004217948589939624,0.0004217948589939624,1e-04,0.9337777495384216,0.31351831555366516,0.31351831555366516
644,1.0,0.00042094357195310295,0.00042094357195310295,1e-04,0.9340000152587891,0.3137410879135132,0.3137410879135132
645,1.0,0.00042005276191048324,0.00042005276191048324,1e-04,0.9342222213745117,0.31394141912460327,0.31394141912460327
646,1.0,0.000419320713263005,0.000419320713263005,1e-04,0.9340000152587891,0.314186692237854,0.314186692237854
647,1.0,0.0004184826393611729,0.0004184826393611729,1e-04,0.9340000152587891,0.3143978714942932,0.3143978714942932
648,1.0,0.0004177248920314014,0.0004177248920314014,1e-04,0.9340000152587891,0.3146267235279083,0.3146267235279083
649,1.0,0.00041676542605273426,0.00041676542605273426,1e-04,0.9340000152587891,0.3148636519908905,0.3148636519908905
650,1.0,0.0004160176613368094,0.0004160176613368094,1e-04,0.9340000152587891,0.3151121735572815,0.3151121735572815
651,1.0,0.00041521876119077206,0.00041521876119077206,1e-04,0.9340000152587891,0.31539931893348694,0.31539931893348694
652,1.0,0.00041439689812250435,0.00041439689812250435,1e-04,0.9344444274902344,0.31566059589385986,0.31566059589385986
653,1.0,0.0004136161005590111,0.0004136161005590111,1e-04,0.9344444274902344,0.3158918619155884,0.3158918619155884
654,1.0,0.000412810972193256,0.000412810972193256,1e-04,0.9344444274902344,0.3161895275115967,0.3161895275115967
655,1.0,0.00041211378993466496,0.00041211378993466496,1e-04,0.9344444274902344,0.3164761960506439,0.3164761960506439
656,1.0,0.00041141328983940184,0.00041141328983940184,1e-04,0.9344444274902344,0.31674090027809143,0.31674090027809143
657,1.0,0.00041060932562686503,0.00041060932562686503,1e-04,0.9348888993263245,0.3170146346092224,0.3170146346092224
658,1.0,0.0004097336495760828,0.0004097336495760828,1e-04,0.9346666932106018,0.31727486848831177,0.31727486848831177
659,1.0,0.0004091558512300253,0.0004091558512300253,1e-04,0.9346666932106018,0.31754976511001587,0.31754976511001587
660,1.0,0.00040824717143550515,0.00040824717143550515,1e-04,0.9346666932106018,0.3178541362285614,0.3178541362285614
661,1.0,0.0004075250471942127,0.0004075250471942127,1e-04,0.9348888993263245,0.31814825534820557,0.31814825534820557
662,1.0,0.0004067088884767145,0.0004067088884767145,1e-04,0.9348888993263245,0.31844598054885864,0.31844598054885864
663,1.0,0.0004060462233610451,0.0004060462233610451,1e-04,0.9348888993263245,0.31876257061958313,0.31876257061958313
664,1.0,0.00040525628719478846,0.00040525628719478846,1e-04,0.9348888993263245,0.319042831659317,0.319042831659317
665,1.0,0.00040445674676448107,0.00040445674676448107,1e-04,0.9348888993263245,0.3193737268447876,0.3193737268447876
666,1.0,0.0004037077887915075,0.0004037077887915075,1e-04,0.9348888993263245,0.3196626603603363,0.3196626603603363
667,1.0,0.00040300912223756313,0.00040300912223756313,1e-04,0.9348888993263245,0.3199768364429474,0.3199768364429474
668,1.0,0.00040222707320936024,0.00040222707320936024,1e-04,0.9351111054420471,0.32030078768730164,0.32030078768730164
669,1.0,0.00040136693860404193,0.00040136693860404193,1e-04,0.9348888993263245,0.32058513164520264,0.32058513164520264
670,1.0,0.0004005534865427762,0.0004005534865427762,1e-04,0.9348888993263245,0.32094937562942505,0.32094937562942505
671,1.0,0.00039988692151382565,0.00039988692151382565,1e-04,0.9346666932106018,0.3212319314479828,0.3212319314479828
672,1.0,0.0003990455297753215,0.0003990455297753215,1e-04,0.9346666932106018,0.3215266764163971,0.3215266764163971
673,1.0,0.00039831644971854985,0.00039831644971854985,1e-04,0.9346666932106018,0.3218153417110443,0.3218153417110443
674,1.0,0.00039756952901370823,0.00039756952901370823,1e-04,0.9346666932106018,0.3221242427825928,0.3221242427825928
675,1.0,0.000396925606764853,0.000396925606764853,1e-04,0.9346666932106018,0.32246133685112,0.32246133685112
676,1.0,0.00039618980372324586,0.00039618980372324586,1e-04,0.9346666932106018,0.3227468729019165,0.3227468729019165
677,1.0,0.0003954822605010122,0.0003954822605010122,1e-04,0.9346666932106018,0.32305648922920227,0.32305648922920227
678,1.0,0.00039470914634875953,0.00039470914634875953,1e-04,0.9348888993263245,0.3233569264411926,0.3233569264411926
679,1.0,0.0003940204333048314,0.0003940204333048314,1e-04,0.9348888993263245,0.3236771523952484,0.3236771523952484
680,1.0,0.00039330648723989725,0.00039330648723989725,1e-04,0.9348888993263245,0.32399097084999084,0.32399097084999084
681,1.0,0.0003925603814423084,0.0003925603814423084,1e-04,0.9348888993263245,0.32429248094558716,0.32429248094558716
682,1.0,0.0003919288865290582,0.0003919288865290582,1e-04,0.9346666932106018,0.324606329202652,0.324606329202652
683,1.0,0.00039118353743106127,0.00039118353743106127,1e-04,0.9348888993263245,0.32493218779563904,0.32493218779563904
684,1.0,0.0003904517798218876,0.0003904517798218876,1e-04,0.9348888993263245,0.3252847492694855,0.3252847492694855
685,1.0,0.00038972002221271396,0.00038972002221271396,1e-04,0.9348888993263245,0.325595498085022,0.325595498085022
686,1.0,0.0003889952786266804,0.0003889952786266804,1e-04,0.9351111054420471,0.325914204120636,0.325914204120636
687,1.0,0.00038832955760881305,0.00038832955760881305,1e-04,0.9351111054420471,0.3261941373348236,0.3261941373348236
688,1.0,0.00038768246304243803,0.00038768246304243803,1e-04,0.9351111054420471,0.3265168070793152,0.3265168070793152
689,1.0,0.0003869708743877709,0.0003869708743877709,1e-04,0.9351111054420471,0.32681581377983093,0.32681581377983093
690,1.0,0.00038620244595222175,0.00038620244595222175,1e-04,0.9351111054420471,0.3270929753780365,0.3270929753780365
691,1.0,0.0003853919333778322,0.0003853919333778322,1e-04,0.9351111054420471,0.3274063467979431,0.3274063467979431
692,1.0,0.000384705577744171,0.000384705577744171,1e-04,0.9351111054420471,0.32771289348602295,0.32771289348602295
693,1.0,0.0003839756245724857,0.0003839756245724857,1e-04,0.9348888993263245,0.32803934812545776,0.32803934812545776
694,1.0,0.0003833128430414945,0.0003833128430414945,1e-04,0.9348888993263245,0.3283354341983795,0.3283354341983795
695,1.0,0.000382528844056651,0.000382528844056651,1e-04,0.9346666932106018,0.3286774754524231,0.3286774754524231
696,1.0,0.00038185203447937965,0.00038185203447937965,1e-04,0.9348888993263245,0.32900476455688477,0.32900476455688477
697,1.0,0.00038115514325909317,0.00038115514325909317,1e-04,0.9348888993263245,0.3293461799621582,0.3293461799621582
698,1.0,0.000380344339646399,0.000380344339646399,1e-04,0.9351111054420471,0.32965072989463806,0.32965072989463806
699,1.0,0.00037971982965245843,0.00037971982965245843,1e-04,0.9353333115577698,0.3299415409564972,0.3299415409564972
700,1.0,0.00037902730400674045,0.00037902730400674045,1e-04,0.9353333115577698,0.3302338719367981,0.3302338719367981
701,1.0,0.0003784017462749034,0.0003784017462749034,1e-04,0.9353333115577698,0.3304724097251892,0.3304724097251892
702,1.0,0.00037770767812617123,0.00037770767812617123,1e-04,0.9353333115577698,0.3307986557483673,0.3307986557483673
703,1.0,0.00037702007102780044,0.00037702007102780044,1e-04,0.9353333115577698,0.3310821056365967,0.3310821056365967
704,1.0,0.0003763474232982844,0.0003763474232982844,1e-04,0.9353333115577698,0.3313462436199188,0.3313462436199188
705,1.0,0.00037564424565061927,0.00037564424565061927,1e-04,0.9353333115577698,0.33161622285842896,0.33161622285842896
706,1.0,0.0003750229370780289,0.0003750229370780289,1e-04,0.9353333115577698,0.33193832635879517,0.33193832635879517
707,1.0,0.0003743327979464084,0.0003743327979464084,1e-04,0.9353333115577698,0.33217424154281616,0.33217424154281616
708,1.0,0.0003736214421223849,0.0003736214421223849,1e-04,0.9353333115577698,0.3325577676296234,0.3325577676296234
709,1.0,0.0003729275777004659,0.0003729275777004659,1e-04,0.9353333115577698,0.3328905999660492,0.3328905999660492
710,1.0,0.00037229733425192535,0.00037229733425192535,1e-04,0.9353333115577698,0.33320072293281555,0.33320072293281555
711,1.0,0.00037165277171880007,0.00037165277171880007,1e-04,0.9353333115577698,0.33352795243263245,0.33352795243263245
712,1.0,0.0003709090524353087,0.0003709090524353087,1e-04,0.9355555772781372,0.33383163809776306,0.33383163809776306
713,1.0,0.00037024967605248094,0.00037024967605248094,1e-04,0.9355555772781372,0.33408305048942566,0.33408305048942566
714,1.0,0.0003695928317029029,0.0003695928317029029,1e-04,0.9355555772781372,0.3343874216079712,0.3343874216079712
715,1.0,0.00036901774001307786,0.00036901774001307786,1e-04,0.9355555772781372,0.33472204208374023,0.33472204208374023
716,1.0,0.00036826939322054386,0.00036826939322054386,1e-04,0.9355555772781372,0.33503270149230957,0.33503270149230957
717,1.0,0.00036772649036720395,0.00036772649036720395,1e-04,0.9355555772781372,0.33530643582344055,0.33530643582344055
718,1.0,0.00036710716085508466,0.00036710716085508466,1e-04,0.9355555772781372,0.33559489250183105,0.33559489250183105
719,1.0,0.0003663826792035252,0.0003663826792035252,1e-04,0.9357777833938599,0.33587056398391724,0.33587056398391724
720,1.0,0.00036572045064531267,0.00036572045064531267,1e-04,0.9357777833938599,0.3361036479473114,0.3361036479473114
721,1.0,0.00036507361801341176,0.00036507361801341176,1e-04,0.9357777833938599,0.33635231852531433,0.33635231852531433
722,1.0,0.0003644483513198793,0.0003644483513198793,1e-04,0.9359999895095825,0.3366546630859375,0.3366546630859375
723,1.0,0.0003638334746938199,0.0003638334746938199,1e-04,0.9362221956253052,0.33691972494125366,0.33691972494125366
724,1.0,0.0003632086736615747,0.0003632086736615747,1e-04,0.9362221956253052,0.3372076153755188,0.3372076153755188
725,1.0,0.0003626338148023933,0.0003626338148023933,1e-04,0.9362221956253052,0.3375079333782196,0.3375079333782196
726,1.0,0.00036198453744873405,0.00036198453744873405,1e-04,0.9362221956253052,0.33781886100769043,0.33781886100769043
727,1.0,0.0003613246663007885,0.0003613246663007885,1e-04,0.9362221956253052,0.3381001651287079,0.3381001651287079
728,1.0,0.0003606132522691041,0.0003606132522691041,1e-04,0.9362221956253052,0.3384160101413727,0.3384160101413727
729,1.0,0.0003599792835302651,0.0003599792835302651,1e-04,0.9364444613456726,0.33865347504615784,0.33865347504615784
730,1.0,0.00035934741026721895,0.00035934741026721895,1e-04,0.9362221956253052,0.338923841714859,0.338923841714859
731,1.0,0.0003587336977943778,0.0003587336977943778,1e-04,0.9364444613456726,0.33919069170951843,0.33919069170951843
732,1.0,0.000358064251486212,0.000358064251486212,1e-04,0.9366666674613953,0.3394283950328827,0.3394283950328827
733,1.0,0.00035742370528168976,0.00035742370528168976,1e-04,0.9366666674613953,0.33972588181495667,0.33972588181495667
734,1.0,0.0003568234678823501,0.0003568234678823501,1e-04,0.9368888735771179,0.33997130393981934,0.33997130393981934
735,1.0,0.0003561851044651121,0.0003561851044651121,1e-04,0.9368888735771179,0.3402586281299591,0.3402586281299591
736,1.0,0.00035560401738621294,0.00035560401738621294,1e-04,0.937333345413208,0.34056180715560913,0.34056180715560913
737,1.0,0.000354941061232239,0.000354941061232239,1e-04,0.937333345413208,0.34082725644111633,0.34082725644111633
738,1.0,0.00035434032906778157,0.00035434032906778157,1e-04,0.937333345413208,0.341055303812027,0.341055303812027
739,1.0,0.00035388796823099256,0.00035388796823099256,1e-04,0.9375555515289307,0.3413465619087219,0.3413465619087219
740,1.0,0.0003532346454448998,0.0003532346454448998,1e-04,0.9375555515289307,0.34167593717575073,0.34167593717575073
741,1.0,0.00035253880196250975,0.00035253880196250975,1e-04,0.9375555515289307,0.3419393301010132,0.3419393301010132
742,1.0,0.00035192130599170923,0.00035192130599170923,1e-04,0.9375555515289307,0.3422105014324188,0.3422105014324188
743,1.0,0.0003513272386044264,0.0003513272386044264,1e-04,0.9375555515289307,0.34243154525756836,0.34243154525756836
744,1.0,0.00035067726275883615,0.00035067726275883615,1e-04,0.9375555515289307,0.3427034914493561,0.3427034914493561
745,1.0,0.00035003910306841135,0.00035003910306841135,1e-04,0.9375555515289307,0.34298956394195557,0.34298956394195557
746,1.0,0.00034942381898872554,0.00034942381898872554,1e-04,0.9375555515289307,0.3433203399181366,0.3433203399181366
747,1.0,0.0003488808870315552,0.0003488808870315552,1e-04,0.9375555515289307,0.34355735778808594,0.34355735778808594
748,1.0,0.000348299159668386,0.000348299159668386,1e-04,0.9375555515289307,0.34373658895492554,0.34373658895492554
749,1.0,0.0003477206628303975,0.0003477206628303975,1e-04,0.9375555515289307,0.34389421343803406,0.34389421343803406
750,1.0,0.00034706894075497985,0.00034706894075497985,1e-04,0.9375555515289307,0.34410127997398376,0.34410127997398376
751,1.0,0.0003464103792794049,0.0003464103792794049,1e-04,0.9375555515289307,0.34437137842178345,0.34437137842178345
752,1.0,0.00034578770282678306,0.00034578770282678306,1e-04,0.9375555515289307,0.34462156891822815,0.34462156891822815
753,1.0,0.00034516604500822723,0.00034516604500822723,1e-04,0.9375555515289307,0.3448629379272461,0.3448629379272461
754,1.0,0.00034457005676813424,0.00034457005676813424,1e-04,0.9375555515289307,0.3451205790042877,0.3451205790042877
755,1.0,0.0003439897554926574,0.0003439897554926574,1e-04,0.9377777576446533,0.3453545570373535,0.3453545570373535
756,1.0,0.0003433599486015737,0.0003433599486015737,1e-04,0.9377777576446533,0.34558627009391785,0.34558627009391785
757,1.0,0.0003427494957577437,0.0003427494957577437,1e-04,0.9377777576446533,0.34583282470703125,0.34583282470703125
758,1.0,0.0003422106965444982,0.0003422106965444982,1e-04,0.9380000233650208,0.3460404872894287,0.3460404872894287
759,1.0,0.0003416290564928204,0.0003416290564928204,1e-04,0.9377777576446533,0.3462735414505005,0.3462735414505005
760,1.0,0.0003410451172385365,0.0003410451172385365,1e-04,0.9377777576446533,0.3465544581413269,0.3465544581413269
761,1.0,0.0003404686285648495,0.0003404686285648495,1e-04,0.9375555515289307,0.346833735704422,0.346833735704422
762,1.0,0.0003399615816306323,0.0003399615816306323,1e-04,0.9375555515289307,0.34709012508392334,0.34709012508392334
763,1.0,0.00033937860280275345,0.00033937860280275345,1e-04,0.9375555515289307,0.34728530049324036,0.34728530049324036
764,1.0,0.0003387340693734586,0.0003387340693734586,1e-04,0.9375555515289307,0.34755805134773254,0.34755805134773254
765,1.0,0.0003381893620826304,0.0003381893620826304,1e-04,0.9375555515289307,0.34782400727272034,0.34782400727272034
766,1.0,0.00033758985227905214,0.00033758985227905214,1e-04,0.9375555515289307,0.34807515144348145,0.34807515144348145
767,1.0,0.0003370194463059306,0.0003370194463059306,1e-04,0.9375555515289307,0.3482789993286133,0.3482789993286133
768,1.0,0.0003363821015227586,0.0003363821015227586,1e-04,0.9375555515289307,0.3484971225261688,0.3484971225261688
769,1.0,0.00033577997237443924,0.00033577997237443924,1e-04,0.9375555515289307,0.3487641215324402,0.3487641215324402
770,1.0,0.0003352297062519938,0.0003352297062519938,1e-04,0.9375555515289307,0.3489624261856079,0.3489624261856079
771,1.0,0.00033474998781457543,0.00033474998781457543,1e-04,0.9375555515289307,0.3492245376110077,0.3492245376110077
772,1.0,0.00033415303914807737,0.00033415303914807737,1e-04,0.9375555515289307,0.34948253631591797,0.34948253631591797
773,1.0,0.00033367358264513314,0.00033367358264513314,1e-04,0.9375555515289307,0.34971320629119873,0.34971320629119873
774,1.0,0.0003330970066599548,0.0003330970066599548,1e-04,0.9375555515289307,0.3499269187450409,0.3499269187450409
775,1.0,0.00033255136804655194,0.00033255136804655194,1e-04,0.9377777576446533,0.3501794636249542,0.3501794636249542
776,1.0,0.0003320076793897897,0.0003320076793897897,1e-04,0.9377777576446533,0.3503972589969635,0.3503972589969635
777,1.0,0.0003314631467219442,0.0003314631467219442,1e-04,0.9377777576446533,0.3506223261356354,0.3506223261356354
778,1.0,0.000330956419929862,0.000330956419929862,1e-04,0.9377777576446533,0.35086506605148315,0.35086509585380554
779,1.0,0.0003303282137494534,0.0003303282137494534,1e-04,0.9377777576446533,0.3510933518409729,0.3510933518409729
780,1.0,0.000329645728925243,0.000329645728925243,1e-04,0.9377777576446533,0.35132694244384766,0.35132691264152527
781,1.0,0.0003291053290013224,0.0003291053290013224,1e-04,0.9377777576446533,0.3515252470970154,0.3515252470970154
782,1.0,0.00032852162257768214,0.00032852162257768214,1e-04,0.9377777576446533,0.3517163097858429,0.3517163097858429
783,1.0,0.0003279525844845921,0.0003279525844845921,1e-04,0.9380000233650208,0.3519271910190582,0.3519271910190582
784,1.0,0.00032730455859564245,0.00032730455859564245,1e-04,0.9380000233650208,0.3521222770214081,0.3521222770214081
785,1.0,0.0003268222790211439,0.0003268222790211439,1e-04,0.9380000233650208,0.35226455330848694,0.35226455330848694
786,1.0,0.0003263089747633785,0.0003263089747633785,1e-04,0.9380000233650208,0.3524296283721924,0.3524296283721924
787,1.0,0.0003257587377447635,0.0003257587377447635,1e-04,0.9377777576446533,0.352602481842041,0.352602481842041
788,1.0,0.0003251827147323638,0.0003251827147323638,1e-04,0.9377777576446533,0.3528250455856323,0.3528250455856323
789,1.0,0.00032465546973980963,0.00032465546973980963,1e-04,0.9380000233650208,0.3530268669128418,0.3530268669128418
790,1.0,0.0003242032544221729,0.0003242032544221729,1e-04,0.9380000233650208,0.3532085418701172,0.3532085418701172
791,1.0,0.00032366489176638424,0.00032366489176638424,1e-04,0.9380000233650208,0.3533746600151062,0.3533746600151062
792,1.0,0.00032306849607266486,0.00032306849607266486,1e-04,0.9380000233650208,0.35352614521980286,0.35352614521980286
793,1.0,0.0003225472173653543,0.0003225472173653543,1e-04,0.9380000233650208,0.35375455021858215,0.35375455021858215
794,1.0,0.0003219374339096248,0.0003219374339096248,1e-04,0.9382222294807434,0.35401368141174316,0.35401368141174316
795,1.0,0.0003213335876353085,0.0003213335876353085,1e-04,0.9382222294807434,0.35424309968948364,0.35424309968948364
796,1.0,0.0003207088157068938,0.0003207088157068938,1e-04,0.9382222294807434,0.35439783334732056,0.35439780354499817
797,1.0,0.00032014408498071134,0.00032014408498071134,1e-04,0.9382222294807434,0.354637086391449,0.354637086391449
798,1.0,0.00031960135675035417,0.00031960135675035417,1e-04,0.9382222294807434,0.3548279106616974,0.3548279106616974
799,1.0,0.0003191365103702992,0.0003191365103702992,1e-04,0.9382222294807434,0.35505786538124084,0.35505786538124084
800,1.0,0.0003186521935276687,0.0003186521935276687,1e-04,0.9380000233650208,0.35526952147483826,0.35526952147483826
801,1.0,0.00031807387131266296,0.00031807387131266296,1e-04,0.9380000233650208,0.3554600179195404,0.3554600179195404
802,1.0,0.0003175769525114447,0.0003175769525114447,1e-04,0.9380000233650208,0.35559341311454773,0.35559341311454773
803,1.0,0.00031703972490504384,0.00031703972490504384,1e-04,0.9380000233650208,0.35578596591949463,0.35578596591949463
804,1.0,0.0003165309317409992,0.0003165309317409992,1e-04,0.9380000233650208,0.35599201917648315,0.35599201917648315
805,1.0,0.0003160300257150084,0.0003160300257150084,1e-04,0.9380000233650208,0.3561583161354065,0.3561583161354065
806,1.0,0.00031551261781714857,0.00031551261781714857,1e-04,0.9377777576446533,0.35633882880210876,0.35633882880210876
807,1.0,0.00031499293982051313,0.00031499293982051313,1e-04,0.9377777576446533,0.35650086402893066,0.35650086402893066
808,1.0,0.00031445338390767574,0.00031445338390767574,1e-04,0.9375555515289307,0.3566725254058838,0.3566725254058838
809,1.0,0.000313891883706674,0.000313891883706674,1e-04,0.9375555515289307,0.35688453912734985,0.35688453912734985
810,1.0,0.00031340241548605263,0.00031340241548605263,1e-04,0.9375555515289307,0.35701167583465576,0.35701167583465576
811,1.0,0.0003129601536784321,0.0003129601536784321,1e-04,0.9375555515289307,0.3571527302265167,0.3571527302265167
812,1.0,0.0003124665527138859,0.0003124665527138859,1e-04,0.937333345413208,0.3573357164859772,0.3573357164859772
813,1.0,0.00031196707277558744,0.00031196707277558744,1e-04,0.937333345413208,0.3575524091720581,0.3575524091720581
814,1.0,0.0003113911661785096,0.0003113911661785096,1e-04,0.9371111392974854,0.35774874687194824,0.35774874687194824
815,1.0,0.0003108619712293148,0.0003108619712293148,1e-04,0.9368888735771179,0.35795870423316956,0.35795870423316956
816,1.0,0.00031036336440593004,0.00031036336440593004,1e-04,0.9368888735771179,0.3581259250640869,0.3581259250640869
817,1.0,0.0003098248562309891,0.0003098248562309891,1e-04,0.9368888735771179,0.3583138883113861,0.3583138883113861
818,1.0,0.0003092701081186533,0.0003092701081186533,1e-04,0.9368888735771179,0.35847023129463196,0.35847023129463196
819,1.0,0.00030876396340318024,0.00030876396340318024,1e-04,0.9368888735771179,0.35865119099617004,0.35865119099617004
820,1.0,0.0003082196635659784,0.0003082196635659784,1e-04,0.9368888735771179,0.3587627708911896,0.3587627708911896
821,1.0,0.0003076668072026223,0.0003076668072026223,1e-04,0.9368888735771179,0.3589077591896057,0.3589077591896057
822,1.0,0.00030717800837010145,0.00030717800837010145,1e-04,0.9368888735771179,0.35904461145401,0.35904461145401
823,1.0,0.0003067704674322158,0.0003067704674322158,1e-04,0.9368888735771179,0.3591454327106476,0.3591454327106476
824,1.0,0.00030627986416220665,0.00030627986416220665,1e-04,0.9368888735771179,0.3593660295009613,0.3593660295009613
825,1.0,0.0003057424328289926,0.0003057424328289926,1e-04,0.9368888735771179,0.3595905303955078,0.3595905303955078
826,1.0,0.0003052488318644464,0.0003052488318644464,1e-04,0.9368888735771179,0.35976359248161316,0.35976359248161316
827,1.0,0.00030475834500975907,0.00030475834500975907,1e-04,0.9368888735771179,0.3599841594696045,0.3599841594696045
828,1.0,0.0003042573225684464,0.0003042573225684464,1e-04,0.9368888735771179,0.36014169454574585,0.36014169454574585
829,1.0,0.0003037777787540108,0.0003037777787540108,1e-04,0.9368888735771179,0.3602677285671234,0.3602677285671234
830,1.0,0.0003032121458090842,0.0003032121458090842,1e-04,0.9368888735771179,0.3604448139667511,0.3604448139667511
831,1.0,0.00030276403413154185,0.00030276403413154185,1e-04,0.9368888735771179,0.3605768084526062,0.3605768084526062
832,1.0,0.00030234974110499024,0.00030234974110499024,1e-04,0.9368888735771179,0.3607635796070099,0.3607635796070099
833,1.0,0.0003018576535396278,0.0003018576535396278,1e-04,0.9368888735771179,0.3608908951282501,0.3608908951282501
834,1.0,0.00030132857500575483,0.00030132857500575483,1e-04,0.9368888735771179,0.36103367805480957,0.36103367805480957
835,1.0,0.0003008592175319791,0.0003008592175319791,1e-04,0.9368888735771179,0.3612276613712311,0.3612276613712311
836,1.0,0.000300367537420243,0.000300367537420243,1e-04,0.9368888735771179,0.3613753318786621,0.3613753318786621
837,1.0,0.0002999057178385556,0.0002999057178385556,1e-04,0.9368888735771179,0.3614281713962555,0.3614281713962555
838,1.0,0.0002994531823787838,0.0002994531823787838,1e-04,0.9368888735771179,0.3615734875202179,0.3615734875202179
839,1.0,0.0002989673812408,0.0002989673812408,1e-04,0.9366666674613953,0.36170101165771484,0.36170101165771484
840,1.0,0.0002985095197800547,0.0002985095197800547,1e-04,0.9366666674613953,0.36184290051460266,0.36184290051460266
841,1.0,0.00029797886963933706,0.00029797886963933706,1e-04,0.9368888735771179,0.36200499534606934,0.36200499534606934
842,1.0,0.00029752450063824654,0.00029752450063824654,1e-04,0.9366666674613953,0.3620927929878235,0.3620927929878235
843,1.0,0.00029709775117225945,0.00029709775117225945,1e-04,0.9371111392974854,0.3622966408729553,0.3622966408729553
844,1.0,0.0002966254251077771,0.0002966254251077771,1e-04,0.9368888735771179,0.36243072152137756,0.36243072152137756
845,1.0,0.00029610347701236606,0.00029610347701236606,1e-04,0.9368888735771179,0.3625795841217041,0.3625795841217041
846,1.0,0.0002956549287773669,0.0002956549287773669,1e-04,0.9368888735771179,0.3627169728279114,0.3627169728279114
847,1.0,0.0002951510832644999,0.0002951510832644999,1e-04,0.9368888735771179,0.3628367483615875,0.3628367483615875
848,1.0,0.00029467177228070796,0.00029467177228070796,1e-04,0.9368888735771179,0.3629748821258545,0.3629748821258545
849,1.0,0.0002941389102488756,0.0002941389102488756,1e-04,0.9368888735771179,0.36311548948287964,0.36311548948287964
850,1.0,0.00029365564114414155,0.00029365564114414155,1e-04,0.9368888735771179,0.3632468581199646,0.3632468581199646
851,1.0,0.00029316317522898316,0.00029316317522898316,1e-04,0.9371111392974854,0.36341342329978943,0.36341342329978943
852,1.0,0.0002927145396824926,0.0002927145396824926,1e-04,0.9371111392974854,0.3635861873626709,0.3635861873626709
853,1.0,0.0002922179992310703,0.0002922179992310703,1e-04,0.9371111392974854,0.3636516332626343,0.3636516332626343
854,1.0,0.0002917972451541573,0.0002917972451541573,1e-04,0.9371111392974854,0.3637957274913788,0.3637957274913788
855,1.0,0.0002914044598583132,0.0002914044598583132,1e-04,0.9371111392974854,0.3638764023780823,0.3638764023780823
856,1.0,0.00029093900229781866,0.00029093900229781866,1e-04,0.9368888735771179,0.363981157541275,0.363981157541275
857,1.0,0.0002904968860093504,0.0002904968860093504,1e-04,0.9368888735771179,0.36410221457481384,0.36410221457481384
858,1.0,0.0002900248218793422,0.0002900248218793422,1e-04,0.9366666674613953,0.3641617000102997,0.3641617000102997
859,1.0,0.00028953366563655436,0.00028953366563655436,1e-04,0.9366666674613953,0.36433088779449463,0.36433088779449463
860,1.0,0.00028909745742566884,0.00028909745742566884,1e-04,0.9366666674613953,0.36447709798812866,0.36447709798812866
861,1.0,0.00028863162151537836,0.00028863162151537836,1e-04,0.9366666674613953,0.36458539962768555,0.36458539962768555
862,1.0,0.00028819654835388064,0.00028819654835388064,1e-04,0.9366666674613953,0.36473149061203003,0.36473149061203003
863,1.0,0.00028768490301445127,0.00028768490301445127,1e-04,0.9368888735771179,0.36485427618026733,0.36485427618026733
864,1.0,0.0002871929609682411,0.0002871929609682411,1e-04,0.9368888735771179,0.36501961946487427,0.36501961946487427
865,1.0,0.00028677587397396564,0.00028677587397396564,1e-04,0.9368888735771179,0.36509841680526733,0.36509841680526733
866,1.0,0.0002863564295694232,0.0002863564295694232,1e-04,0.9368888735771179,0.3652220368385315,0.3652220368385315
867,1.0,0.0002858580555766821,0.0002858580555766821,1e-04,0.9368888735771179,0.3653644621372223,0.3653644621372223
868,1.0,0.0002854411432053894,0.0002854411432053894,1e-04,0.9368888735771179,0.36550673842430115,0.36550673842430115
869,1.0,0.0002849537704605609,0.0002849537704605609,1e-04,0.9366666674613953,0.36564838886260986,0.36564838886260986
870,1.0,0.00028452230617403984,0.00028452230617403984,1e-04,0.9366666674613953,0.36575695872306824,0.36575695872306824
871,1.0,0.0002841157838702202,0.0002841157838702202,1e-04,0.9366666674613953,0.3658880293369293,0.3658880293369293
872,1.0,0.0002836236380971968,0.0002836236380971968,1e-04,0.9366666674613953,0.36606365442276,0.36606365442276
873,1.0,0.0002831743622664362,0.0002831743622664362,1e-04,0.9366666674613953,0.3662191927433014,0.3662191927433014
874,1.0,0.0002827442658599466,0.0002827442658599466,1e-04,0.9366666674613953,0.36630818247795105,0.36630818247795105
875,1.0,0.00028227834263816476,0.00028227834263816476,1e-04,0.9366666674613953,0.3664252758026123,0.3664252758026123
876,1.0,0.00028184911934658885,0.00028184911934658885,1e-04,0.9366666674613953,0.3665437698364258,0.3665437698364258
877,1.0,0.00028145028045400977,0.00028145028045400977,1e-04,0.9366666674613953,0.3666735291481018,0.3666735291481018
878,1.0,0.00028108316473662853,0.00028108316473662853,1e-04,0.9366666674613953,0.36676695942878723,0.36676695942878723
879,1.0,0.00028063057106919587,0.00028063057106919587,1e-04,0.9366666674613953,0.3668595254421234,0.3668595254421234
880,1.0,0.0002802362432703376,0.0002802362432703376,1e-04,0.9366666674613953,0.3669780194759369,0.3669780194759369
881,1.0,0.00027978341677226126,0.00027978341677226126,1e-04,0.9366666674613953,0.36708804965019226,0.36708804965019226
882,1.0,0.00027929741190746427,0.00027929741190746427,1e-04,0.9366666674613953,0.3672237992286682,0.3672237992286682
883,1.0,0.00027889764169231057,0.00027889764169231057,1e-04,0.9366666674613953,0.36734911799430847,0.36734911799430847
884,1.0,0.00027840700931847095,0.00027840700931847095,1e-04,0.9366666674613953,0.3674478828907013,0.3674478828907013
885,1.0,0.000277982879197225,0.000277982879197225,1e-04,0.9366666674613953,0.36749598383903503,0.36749598383903503
886,1.0,0.00027760816738009453,0.00027760816738009453,1e-04,0.9366666674613953,0.3675793707370758,0.3675793707370758
887,1.0,0.00027715315809473395,0.00027715315809473395,1e-04,0.9366666674613953,0.367696613073349,0.367696613073349
888,1.0,0.00027675364981405437,0.00027675364981405437,1e-04,0.9366666674613953,0.36775049567222595,0.36775049567222595
889,1.0,0.0002763291704468429,0.0002763291704468429,1e-04,0.9366666674613953,0.3678492307662964,0.3678492307662964
890,1.0,0.0002759450871963054,0.0002759450871963054,1e-04,0.9366666674613953,0.3679554760456085,0.3679554760456085
891,1.0,0.00027551865787245333,0.00027551865787245333,1e-04,0.9366666674613953,0.36806175112724304,0.36806175112724304
892,1.0,0.00027514391695149243,0.00027514391695149243,1e-04,0.9366666674613953,0.3681321144104004,0.3681321144104004
893,1.0,0.00027472389047034085,0.00027472389047034085,1e-04,0.9366666674613953,0.36823198199272156,0.36823198199272156
894,1.0,0.00027428093017078936,0.00027428093017078936,1e-04,0.9366666674613953,0.36831748485565186,0.36831748485565186
895,1.0,0.0002738625626079738,0.0002738625626079738,1e-04,0.9366666674613953,0.3684149980545044,0.3684149980545044
896,1.0,0.00027339402004145086,0.00027339402004145086,1e-04,0.9368888735771179,0.36850249767303467,0.36850249767303467
897,1.0,0.0002729683183133602,0.0002729683183133602,1e-04,0.9366666674613953,0.3685697019100189,0.3685697019100189
898,1.0,0.0002725580707192421,0.0002725580707192421,1e-04,0.9366666674613953,0.3686617910861969,0.3686618208885193
899,1.0,0.0002721894416026771,0.0002721894416026771,1e-04,0.9366666674613953,0.36867406964302063,0.36867406964302063
900,1.0,0.0002716908638831228,0.0002716908638831228,1e-04,0.9366666674613953,0.3687732517719269,0.3687732517719269
901,1.0,0.0002713167923502624,0.0002713167923502624,1e-04,0.9366666674613953,0.368877649307251,0.368877649307251
902,1.0,0.00027086696354672313,0.00027086696354672313,1e-04,0.9366666674613953,0.3690045177936554,0.3690045177936554
903,1.0,0.00027046725153923035,0.00027046725153923035,1e-04,0.9366666674613953,0.3690958321094513,0.3690958321094513
904,1.0,0.000270049087703228,0.000270049087703228,1e-04,0.9366666674613953,0.36916255950927734,0.36916255950927734
905,1.0,0.0002695816510822624,0.0002695816510822624,1e-04,0.9366666674613953,0.36920005083084106,0.36920005083084106
906,1.0,0.0002692144480533898,0.0002692144480533898,1e-04,0.9366666674613953,0.36930182576179504,0.36930182576179504
907,1.0,0.0002687849337235093,0.0002687849337235093,1e-04,0.9366666674613953,0.36939963698387146,0.36939963698387146
908,1.0,0.0002684149076230824,0.0002684149076230824,1e-04,0.9366666674613953,0.3695116341114044,0.3695116341114044
909,1.0,0.00026804901426658034,0.00026804901426658034,1e-04,0.9364444613456726,0.36962059140205383,0.36962059140205383
910,1.0,0.0002676252042874694,0.0002676252042874694,1e-04,0.9364444613456726,0.36972716450691223,0.36972716450691223
911,1.0,0.0002672304108273238,0.0002672304108273238,1e-04,0.9364444613456726,0.3699035942554474,0.3699035942554474
912,1.0,0.0002668211527634412,0.0002668211527634412,1e-04,0.9364444613456726,0.3700490891933441,0.3700490891933441
913,1.0,0.0002664047060534358,0.0002664047060534358,1e-04,0.9364444613456726,0.37017014622688293,0.37017014622688293
914,1.0,0.0002660182071849704,0.0002660182071849704,1e-04,0.9364444613456726,0.37030383944511414,0.37030383944511414
915,1.0,0.00026552239432930946,0.00026552239432930946,1e-04,0.9364444613456726,0.3703908324241638,0.3703908324241638
916,1.0,0.0002650975657161325,0.0002650975657161325,1e-04,0.9364444613456726,0.37044864892959595,0.37044864892959595
917,1.0,0.0002647454384714365,0.0002647454384714365,1e-04,0.9364444613456726,0.37052032351493835,0.37052032351493835
918,1.0,0.0002643015468493104,0.0002643015468493104,1e-04,0.9364444613456726,0.3706192076206207,0.3706192076206207
919,1.0,0.00026386609533801675,0.00026386609533801675,1e-04,0.9364444613456726,0.37066254019737244,0.37066254019737244
920,1.0,0.0002634476113598794,0.0002634476113598794,1e-04,0.9364444613456726,0.3707047998905182,0.3707047998905182
921,1.0,0.00026310430257581174,0.00026310430257581174,1e-04,0.9364444613456726,0.3707318603992462,0.3707318603992462
922,1.0,0.00026269478257745504,0.00026269478257745504,1e-04,0.9364444613456726,0.37077486515045166,0.37077486515045166
923,1.0,0.0002623593027237803,0.0002623593027237803,1e-04,0.9364444613456726,0.37088000774383545,0.37088000774383545
924,1.0,0.0002619537408463657,0.0002619537408463657,1e-04,0.9364444613456726,0.3709850311279297,0.3709850311279297
925,1.0,0.00026159684057347476,0.00026159684057347476,1e-04,0.9364444613456726,0.37106746435165405,0.37106746435165405
926,1.0,0.0002612144744489342,0.0002612144744489342,1e-04,0.9364444613456726,0.37123391032218933,0.37123391032218933
927,1.0,0.0002607834176160395,0.0002607834176160395,1e-04,0.9364444613456726,0.3712916374206543,0.3712916374206543
928,1.0,0.0002603921457193792,0.0002603921457193792,1e-04,0.9364444613456726,0.3713931739330292,0.3713931739330292
929,1.0,0.0002600066363811493,0.0002600066363811493,1e-04,0.9364444613456726,0.3714546859264374,0.3714546859264374
930,1.0,0.00025958509650081396,0.00025958509650081396,1e-04,0.9364444613456726,0.37149786949157715,0.37149786949157715
931,1.0,0.0002591608208604157,0.0002591608208604157,1e-04,0.9364444613456726,0.3715759813785553,0.3715759813785553
932,1.0,0.000258850835962221,0.000258850835962221,1e-04,0.9364444613456726,0.3716254234313965,0.3716254234313965
933,1.0,0.0002584464964456856,0.0002584464964456856,1e-04,0.9364444613456726,0.37173330783843994,0.37173330783843994
934,1.0,0.0002580990840215236,0.0002580990840215236,1e-04,0.9364444613456726,0.37182900309562683,0.37182900309562683
935,1.0,0.00025765967438928783,0.00025765967438928783,1e-04,0.9364444613456726,0.3719477653503418,0.3719477653503418
936,1.0,0.00025724133593030274,0.00025724133593030274,1e-04,0.9364444613456726,0.3720233142375946,0.3720233142375946
937,1.0,0.000256889354204759,0.000256889354204759,1e-04,0.9364444613456726,0.37211817502975464,0.37211817502975464
938,1.0,0.0002565086761023849,0.0002565086761023849,1e-04,0.9364444613456726,0.37214019894599915,0.37214019894599915
939,1.0,0.0002561266010161489,0.0002561266010161489,1e-04,0.9364444613456726,0.3721557855606079,0.3721557855606079
940,1.0,0.0002557406551204622,0.0002557406551204622,1e-04,0.9364444613456726,0.37218451499938965,0.37218451499938965
941,1.0,0.0002554621605668217,0.0002554621605668217,1e-04,0.9364444613456726,0.3722502589225769,0.3722502589225769
942,1.0,0.0002550313656684011,0.0002550313656684011,1e-04,0.9364444613456726,0.372279554605484,0.372279554605484
943,1.0,0.0002546809264458716,0.0002546809264458716,1e-04,0.9364444613456726,0.37240996956825256,0.37240996956825256
944,1.0,0.00025428729713894427,0.00025428729713894427,1e-04,0.9364444613456726,0.37251341342926025,0.37251341342926025
945,1.0,0.0002539136621635407,0.0002539136621635407,1e-04,0.9364444613456726,0.3725655674934387,0.3725655674934387
946,1.0,0.00025354267563670874,0.00025354267563670874,1e-04,0.9364444613456726,0.37260106205940247,0.37260106205940247
947,1.0,0.0002532067592255771,0.0002532067592255771,1e-04,0.9364444613456726,0.37269386649131775,0.37269386649131775
948,1.0,0.0002528043696656823,0.0002528043696656823,1e-04,0.9364444613456726,0.3727862536907196,0.3727862536907196
949,1.0,0.000252445024671033,0.000252445024671033,1e-04,0.9362221956253052,0.3727983236312866,0.3727983236312866
950,1.0,0.00025209379964508116,0.00025209379964508116,1e-04,0.9362221956253052,0.3728038966655731,0.37280386686325073
951,1.0,0.0002517052926123142,0.0002517052926123142,1e-04,0.9362221956253052,0.3729059398174286,0.3729059398174286
952,1.0,0.0002512942592147738,0.0002512942592147738,1e-04,0.9362221956253052,0.37296196818351746,0.37296196818351746
953,1.0,0.00025091253337450325,0.00025091253337450325,1e-04,0.9362221956253052,0.37307286262512207,0.37307289242744446
954,1.0,0.0002505275188013911,0.0002505275188013911,1e-04,0.9362221956253052,0.3732045590877533,0.3732045590877533
955,1.0,0.0002501970448065549,0.0002501970448065549,1e-04,0.9362221956253052,0.37321847677230835,0.37321847677230835
956,1.0,0.00024984090123325586,0.00024984090123325586,1e-04,0.9362221956253052,0.3732350766658783,0.3732350766658783
957,1.0,0.0002494174987077713,0.0002494174987077713,1e-04,0.9362221956253052,0.37330397963523865,0.37330397963523865
958,1.0,0.00024906909675337374,0.00024906909675337374,1e-04,0.9362221956253052,0.37336474657058716,0.37336474657058716
959,1.0,0.00024872145149856806,0.00024872145149856806,1e-04,0.9362221956253052,0.37342193722724915,0.37342193722724915
960,1.0,0.0002483767457306385,0.0002483767457306385,1e-04,0.9362221956253052,0.37347039580345154,0.37347039580345154
961,1.0,0.0002480203111190349,0.0002480203111190349,1e-04,0.9362221956253052,0.37353384494781494,0.37353384494781494
962,1.0,0.0002476514782756567,0.0002476514782756567,1e-04,0.9362221956253052,0.3736242353916168,0.3736242353916168
963,1.0,0.00024726270930841565,0.00024726270930841565,1e-04,0.9362221956253052,0.37367796897888184,0.37367796897888184
964,1.0,0.0002469081082381308,0.0002469081082381308,1e-04,0.9362221956253052,0.37375786900520325,0.37375786900520325
965,1.0,0.00024648875114507973,0.00024648875114507973,1e-04,0.9362221956253052,0.37380552291870117,0.37380552291870117
966,1.0,0.00024614966241642833,0.00024614966241642833,1e-04,0.9362221956253052,0.3738177418708801,0.3738177418708801
967,1.0,0.0002457629598211497,0.0002457629598211497,1e-04,0.9362221956253052,0.3739108741283417,0.3739108741283417
968,1.0,0.0002453905763104558,0.0002453905763104558,1e-04,0.9362221956253052,0.3740290403366089,0.3740290403366089
969,1.0,0.0002450662141200155,0.0002450662141200155,1e-04,0.9362221956253052,0.37414252758026123,0.37414252758026123
970,1.0,0.00024469103664159775,0.00024469103664159775,1e-04,0.9362221956253052,0.37422874569892883,0.37422874569892883
971,1.0,0.00024429167388007045,0.00024429167388007045,1e-04,0.9362221956253052,0.3742446303367615,0.3742446303367615
972,1.0,0.00024390470935031772,0.00024390470935031772,1e-04,0.9362221956253052,0.3742559552192688,0.3742559552192688
973,1.0,0.0002435758797219023,0.0002435758797219023,1e-04,0.9362221956253052,0.37420549988746643,0.37420549988746643
974,1.0,0.00024321378441527486,0.00024321378441527486,1e-04,0.9362221956253052,0.37426429986953735,0.37426429986953735
975,1.0,0.00024286474217660725,0.00024286474217660725,1e-04,0.9362221956253052,0.3743423819541931,0.3743423819541931
976,1.0,0.00024253591254819185,0.00024253591254819185,1e-04,0.9362221956253052,0.3744524419307709,0.3744524419307709
977,1.0,0.00024218088947236538,0.00024218088947236538,1e-04,0.9362221956253052,0.3746143579483032,0.3746143579483032
978,1.0,0.00024181439948733896,0.00024181439948733896,1e-04,0.9362221956253052,0.3747313320636749,0.3747313320636749
979,1.0,0.0002414699411019683,0.0002414699411019683,1e-04,0.9362221956253052,0.3748157322406769,0.3748157322406769
980,1.0,0.0002411201421637088,0.0002411201421637088,1e-04,0.9362221956253052,0.37487366795539856,0.37487366795539856
981,1.0,0.00024081849551294,0.00024081849551294,1e-04,0.9362221956253052,0.3749558925628662,0.3749558925628662
982,1.0,0.00024046964244917035,0.00024046964244917035,1e-04,0.9364444613456726,0.37504032254219055,0.37504032254219055
983,1.0,0.00024011584173422307,0.00024011584173422307,1e-04,0.9362221956253052,0.37513965368270874,0.37513965368270874
984,1.0,0.0002398624928900972,0.0002398624928900972,1e-04,0.9362221956253052,0.37519651651382446,0.37519651651382446
985,1.0,0.0002394665207248181,0.0002394665207248181,1e-04,0.9362221956253052,0.3752521574497223,0.3752521574497223
986,1.0,0.00023909487936180085,0.00023909487936180085,1e-04,0.9362221956253052,0.3752363920211792,0.3752363920211792
987,1.0,0.0002387594140600413,0.0002387594140600413,1e-04,0.9364444613456726,0.37521597743034363,0.37521597743034363
988,1.0,0.00023843989765737206,0.00023843989765737206,1e-04,0.9364444613456726,0.37529733777046204,0.37529733777046204
989,1.0,0.00023811674327589571,0.00023811674327589571,1e-04,0.9364444613456726,0.37529799342155457,0.3752979636192322
990,1.0,0.00023773890279699117,0.00023773890279699117,1e-04,0.9364444613456726,0.3753916025161743,0.3753916025161743
991,1.0,0.00023742241319268942,0.00023742241319268942,1e-04,0.9364444613456726,0.37550172209739685,0.37550172209739685
992,1.0,0.00023709073138888925,0.00023709073138888925,1e-04,0.9364444613456726,0.3755013942718506,0.3755013942718506
993,1.0,0.0002368152781855315,0.0002368152781855315,1e-04,0.9364444613456726,0.37558722496032715,0.37558722496032715
994,1.0,0.0002364899992244318,0.0002364899992244318,1e-04,0.9364444613456726,0.3755228817462921,0.3755228817462921
995,1.0,0.0002361340302741155,0.0002361340302741155,1e-04,0.9364444613456726,0.37552645802497864,0.37552645802497864
996,1.0,0.0002357788325753063,0.0002357788325753063,1e-04,0.9364444613456726,0.37557563185691833,0.37557563185691833
997,1.0,0.00023547453747596592,0.00023547453747596592,1e-04,0.9364444613456726,0.3756856322288513,0.3756856322288513
998,1.0,0.0002351745351916179,0.0002351745351916179,1e-04,0.9364444613456726,0.3757072389125824,0.3757072389125824
999,1.0,0.00023478166258428246,0.00023478166258428246,1e-04,0.9364444613456726,0.3758211135864258,0.3758211135864258
