epoch,accuracy,categorical_crossentropy,loss,lr,val_accuracy,val_categorical_crossentropy,val_loss
0,0.3540000021457672,2.036172389984131,2.036172389984131,0.001,0.3531111180782318,1.6029118299484253,1.6029118299484253
1,0.35199999809265137,1.442511796951294,1.442511796951294,0.001,0.8451111316680908,1.5968214273452759,1.5968214273452759
2,0.4959999918937683,1.1834211349487305,1.1834211349487305,0.001,0.8422222137451172,1.5911870002746582,1.5911870002746582
3,0.7639999985694885,1.010414481163025,1.010414481163025,0.001,0.781333327293396,1.5864980220794678,1.5864980220794678
4,0.8320000171661377,0.8877796530723572,0.8877796530723572,0.001,0.5526666641235352,1.5821067094802856,1.5821067094802856
5,0.8600000143051147,0.7999275922775269,0.7999275922775269,0.001,0.36311110854148865,1.5772844552993774,1.5772844552993774
6,0.8679999709129333,0.7314829230308533,0.7314829230308533,0.001,0.3482222259044647,1.5716235637664795,1.5716235637664795
7,0.878000020980835,0.6764692664146423,0.6764692664146423,0.001,0.347555547952652,1.5652447938919067,1.5652447938919067
8,0.8820000290870667,0.6315896511077881,0.6315896511077881,0.001,0.3488888740539551,1.5584975481033325,1.5584975481033325
9,0.8840000033378601,0.59340900182724,0.59340900182724,0.001,0.35066667199134827,1.5518579483032227,1.5518579483032227
10,0.8939999938011169,0.5602011680603027,0.5602011680603027,0.001,0.3504444360733032,1.5456172227859497,1.5456172227859497
11,0.8960000276565552,0.5324892401695251,0.5324892401695251,0.001,0.35244444012641907,1.5398982763290405,1.5398982763290405
12,0.9020000100135803,0.5084048509597778,0.5084048509597778,0.001,0.3526666760444641,1.5347301959991455,1.5347301959991455
13,0.9020000100135803,0.48651543259620667,0.48651543259620667,0.001,0.3535555601119995,1.5302317142486572,1.5302317142486572
14,0.906000018119812,0.4665513336658478,0.4665513336658478,0.001,0.35422220826148987,1.5264475345611572,1.5264475345611572
15,0.9079999923706055,0.44857150316238403,0.44857150316238403,0.001,0.3540000021457672,1.5232844352722168,1.5232844352722168
16,0.9120000004768372,0.43229812383651733,0.43229812383651733,0.001,0.3535555601119995,1.5206183195114136,1.5206183195114136
17,0.9120000004768372,0.41771814227104187,0.41771814227104187,0.001,0.35333332419395447,1.5182710886001587,1.5182710886001587
18,0.9120000004768372,0.4043552577495575,0.4043552577495575,0.001,0.35333332419395447,1.5161486864089966,1.5161486864089966
19,0.9160000085830688,0.3921580910682678,0.3921580910682678,0.001,0.35333332419395447,1.5142067670822144,1.5142067670822144
20,0.9160000085830688,0.38139691948890686,0.38139691948890686,0.001,0.35333332419395447,1.5124813318252563,1.5124813318252563
21,0.9179999828338623,0.3719310164451599,0.3719310164451599,0.001,0.35333332419395447,1.5110158920288086,1.5110158920288086
22,0.9200000166893005,0.363333523273468,0.363333523273468,0.001,0.35333332419395447,1.5098497867584229,1.5098497867584229
23,0.921999990940094,0.3554029166698456,0.3554029166698456,0.001,0.35333332419395447,1.5090011358261108,1.5090011358261108
24,0.9259999990463257,0.3480544686317444,0.3480544686317444,0.001,0.35333332419395447,1.5085746049880981,1.5085746049880981
25,0.9259999990463257,0.3411366939544678,0.3411366939544678,0.001,0.35333332419395447,1.5085467100143433,1.5085467100143433
26,0.9259999990463257,0.33457034826278687,0.33457034826278687,0.001,0.35333332419395447,1.5089458227157593,1.5089458227157593
27,0.9259999990463257,0.3283350169658661,0.3283350169658661,0.001,0.35333332419395447,1.5098118782043457,1.5098118782043457
28,0.9259999990463257,0.3225119709968567,0.3225119709968567,0.001,0.35333332419395447,1.51116943359375,1.51116943359375
29,0.9259999990463257,0.3170888423919678,0.3170888423919678,0.001,0.35333332419395447,1.5131804943084717,1.5131804943084717
30,0.9279999732971191,0.31206053495407104,0.31206053495407104,0.001,0.35333332419395447,1.5161018371582031,1.5161018371582031
31,0.9279999732971191,0.3073011338710785,0.3073011338710785,0.001,0.35333332419395447,1.5196521282196045,1.5196521282196045
32,0.9300000071525574,0.3026714622974396,0.3026714622974396,0.001,0.35333332419395447,1.5237547159194946,1.5237547159194946
33,0.9300000071525574,0.2982615828514099,0.2982615828514099,0.001,0.35333332419395447,1.5284119844436646,1.5284119844436646
34,0.9300000071525574,0.2940482497215271,0.2940482497215271,0.001,0.35333332419395447,1.5335237979888916,1.5335237979888916
35,0.9279999732971191,0.29000112414360046,0.29000112414360046,0.001,0.35333332419395447,1.5391111373901367,1.5391111373901367
36,0.9279999732971191,0.2860918939113617,0.2860918939113617,0.001,0.35333332419395447,1.5451257228851318,1.5451257228851318
37,0.9279999732971191,0.2822731137275696,0.2822731137275696,0.001,0.35333332419395447,1.5514743328094482,1.5514743328094482
38,0.9279999732971191,0.27850398421287537,0.27850398421287537,0.001,0.35333332419395447,1.558205008506775,1.558205008506775
39,0.9279999732971191,0.2748148441314697,0.2748148441314697,0.001,0.35333332419395447,1.5652376413345337,1.5652376413345337
40,0.9279999732971191,0.2712174654006958,0.2712174654006958,0.001,0.35333332419395447,1.572561502456665,1.572561502456665
41,0.9279999732971191,0.2676648199558258,0.2676648199558258,0.001,0.35333332419395447,1.5802122354507446,1.5802122354507446
42,0.9279999732971191,0.26417383551597595,0.26417383551597595,0.001,0.35333332419395447,1.5881317853927612,1.5881317853927612
43,0.9279999732971191,0.2607000172138214,0.2607000172138214,0.001,0.2195555567741394,1.5963445901870728,1.5963445901870728
44,0.9279999732971191,0.25724685192108154,0.25724685192108154,0.001,0.019999999552965164,1.6047989130020142,1.6047989130020142
45,0.9300000071525574,0.2538074851036072,0.2538074851036072,0.001,0.019111111760139465,1.6134079694747925,1.6134079694747925
46,0.9300000071525574,0.25037890672683716,0.25037890672683716,0.001,0.019111111760139465,1.6220301389694214,1.6220301389694214
47,0.9300000071525574,0.246982142329216,0.246982142329216,0.001,0.019111111760139465,1.6307213306427002,1.6307213306427002
48,0.9300000071525574,0.24373306334018707,0.24373306334018707,0.001,0.019111111760139465,1.6394448280334473,1.6394448280334473
49,0.9319999814033508,0.24062059819698334,0.24062059819698334,0.001,0.019111111760139465,1.648221731185913,1.648221731185913
50,0.9359999895095825,0.23764833807945251,0.23764833807945251,0.001,0.019111111760139465,1.6570062637329102,1.6570062637329102
51,0.9359999895095825,0.23481954634189606,0.23481954634189606,0.001,0.019111111760139465,1.6656608581542969,1.6656608581542969
52,0.9359999895095825,0.2320825159549713,0.2320825159549713,0.001,0.019111111760139465,1.673653244972229,1.673653244972229
53,0.9359999895095825,0.22933366894721985,0.22933366894721985,0.001,0.019111111760139465,1.6809810400009155,1.6809810400009155
54,0.9359999895095825,0.2265317440032959,0.2265317440032959,0.001,0.019111111760139465,1.6878809928894043,1.6878809928894043
55,0.9359999895095825,0.22380563616752625,0.22380563616752625,0.001,0.019111111760139465,1.6943342685699463,1.6943342685699463
56,0.9359999895095825,0.22107434272766113,0.22107434272766113,0.001,0.019111111760139465,1.7001681327819824,1.7001681327819824
57,0.9359999895095825,0.21835726499557495,0.21835726499557495,0.001,0.019111111760139465,1.705571174621582,1.705571174621582
58,0.9359999895095825,0.21563230454921722,0.21563230454921722,0.001,0.019111111760139465,1.7105212211608887,1.7105212211608887
59,0.9359999895095825,0.21289043128490448,0.21289043128490448,0.001,0.019111111760139465,1.7152152061462402,1.7152152061462402
60,0.9359999895095825,0.21028847992420197,0.21028847992420197,0.001,0.019111111760139465,1.7194774150848389,1.7194774150848389
61,0.9359999895095825,0.2078421413898468,0.2078421413898468,0.001,0.019111111760139465,1.7236790657043457,1.7236790657043457
62,0.9380000233650208,0.2064482867717743,0.2064482867717743,0.001,0.019111111760139465,1.7274353504180908,1.7274353504180908
63,0.9359999895095825,0.20701687037944794,0.20701687037944794,0.001,0.019111111760139465,1.7319825887680054,1.7319825887680054
64,0.9380000233650208,0.20360082387924194,0.20360082387924194,0.001,0.019111111760139465,1.7364484071731567,1.7364484071731567
65,0.9419999718666077,0.1987796574831009,0.1987796574831009,0.001,0.019111111760139465,1.7413628101348877,1.7413628101348877
66,0.9419999718666077,0.19887584447860718,0.19887584447860718,0.001,0.019111111760139465,1.7468397617340088,1.7468397617340088
67,0.9459999799728394,0.1953294724225998,0.1953294724225998,0.001,0.019111111760139465,1.7514570951461792,1.7514570951461792
68,0.9480000138282776,0.192354217171669,0.192354217171669,0.001,0.019111111760139465,1.7548205852508545,1.7548205852508545
69,0.9459999799728394,0.1920851618051529,0.1920851618051529,0.001,0.019111111760139465,1.7586771249771118,1.7586771249771118
70,0.949999988079071,0.18966801464557648,0.18966801464557648,0.001,0.019111111760139465,1.76144540309906,1.76144540309906
71,0.9480000138282776,0.1865260899066925,0.1865260899066925,0.001,0.019111111760139465,1.7642751932144165,1.7642751932144165
72,0.949999988079071,0.1855422556400299,0.1855422556400299,0.001,0.019111111760139465,1.7688195705413818,1.7688195705413818
73,0.9520000219345093,0.1834334135055542,0.1834334135055542,0.001,0.019111111760139465,1.7734731435775757,1.7734731435775757
74,0.9520000219345093,0.1804548054933548,0.1804548054933548,0.001,0.019111111760139465,1.7783571481704712,1.7783571481704712
75,0.9539999961853027,0.17882861196994781,0.17882861196994781,0.0005,0.019111111760139465,1.7813841104507446,1.7813841104507446
76,0.9539999961853027,0.1776004582643509,0.1776004582643509,0.0005,0.019111111760139465,1.7831411361694336,1.7831411361694336
77,0.9539999961853027,0.17658039927482605,0.17658039927482605,0.0005,0.019111111760139465,1.7840871810913086,1.7840871810913086
78,0.9539999961853027,0.17535057663917542,0.17535057663917542,0.0005,0.019111111760139465,1.785152792930603,1.785152792930603
79,0.9539999961853027,0.17452123761177063,0.17452123761177063,0.0005,0.019111111760139465,1.7871354818344116,1.7871354818344116
80,0.9539999961853027,0.17339254915714264,0.17339254915714264,0.0005,0.019111111760139465,1.7897206544876099,1.7897206544876099
81,0.9539999961853027,0.17231115698814392,0.17231115698814392,0.0005,0.019111111760139465,1.792421817779541,1.792421817779541
82,0.9539999961853027,0.1713685393333435,0.1713685393333435,0.0005,0.019111111760139465,1.7951366901397705,1.7951366901397705
83,0.9539999961853027,0.17022310197353363,0.17022310197353363,0.0005,0.019111111760139465,1.797316551208496,1.797316551208496
84,0.9520000219345093,0.16940763592720032,0.16940763592720032,0.0005,0.019111111760139465,1.798807978630066,1.798807978630066
85,0.9520000219345093,0.16816231608390808,0.16816231608390808,0.0005,0.019111111760139465,1.800252079963684,1.800252079963684
86,0.9520000219345093,0.16733111441135406,0.16733111441135406,0.0005,0.019111111760139465,1.8021788597106934,1.8021788597106934
87,0.9539999961853027,0.1662975698709488,0.1662975698709488,0.0005,0.019111111760139465,1.804181694984436,1.804181694984436
88,0.9539999961853027,0.16516190767288208,0.16516190767288208,0.0005,0.019111111760139465,1.8059663772583008,1.8059663772583008
89,0.9539999961853027,0.16437719762325287,0.16437719762325287,0.0005,0.019111111760139465,1.8076049089431763,1.8076049089431763
90,0.9539999961853027,0.16327723860740662,0.16327723860740662,0.0005,0.019111111760139465,1.808861494064331,1.808861494064331
91,0.9539999961853027,0.16224919259548187,0.16224919259548187,0.0005,0.019111111760139465,1.8100279569625854,1.8100279569625854
92,0.9539999961853027,0.16140279173851013,0.16140279173851013,0.0005,0.019111111760139465,1.8112462759017944,1.8112462759017944
93,0.9539999961853027,0.160494863986969,0.160494863986969,0.0005,0.019111111760139465,1.811540961265564,1.811540961265564
94,0.9539999961853027,0.15946605801582336,0.15946605801582336,0.0005,0.019111111760139465,1.8114924430847168,1.8114924430847168
95,0.9539999961853027,0.15846042335033417,0.15846042335033417,0.0005,0.019111111760139465,1.8115252256393433,1.8115252256393433
96,0.9559999704360962,0.15760904550552368,0.15760904550552368,0.0005,0.019111111760139465,1.8118361234664917,1.8118361234664917
97,0.9559999704360962,0.1568756401538849,0.1568756401538849,0.0005,0.019111111760139465,1.8132503032684326,1.8132503032684326
98,0.9580000042915344,0.15601907670497894,0.15601907670497894,0.0005,0.019111111760139465,1.8136787414550781,1.8136787414550781
99,0.9559999704360962,0.15508095920085907,0.15508095920085907,0.0005,0.019111111760139465,1.8139472007751465,1.8139472007751465
100,0.9580000042915344,0.15411429107189178,0.15411429107189178,0.0005,0.019111111760139465,1.8140225410461426,1.8140225410461426
101,0.9580000042915344,0.15316329896450043,0.15316329896450043,0.0005,0.019111111760139465,1.815324306488037,1.815324306488037
102,0.9580000042915344,0.15228158235549927,0.15228158235549927,0.0005,0.019111111760139465,1.8152058124542236,1.8152058124542236
103,0.9580000042915344,0.1515399068593979,0.1515399068593979,0.0005,0.019111111760139465,1.8144564628601074,1.8144564628601074
104,0.9580000042915344,0.15098048746585846,0.15098048746585846,0.0005,0.019111111760139465,1.813086748123169,1.813086748123169
105,0.9559999704360962,0.15093542635440826,0.15093542635440826,0.0005,0.019111111760139465,1.814753770828247,1.814753770828247
106,0.9580000042915344,0.1508253514766693,0.1508253514766693,0.0005,0.019111111760139465,1.8143105506896973,1.8143105506896973
107,0.9559999704360962,0.14960965514183044,0.14960965514183044,0.0005,0.019111111760139465,1.81411612033844,1.81411612033844
108,0.9580000042915344,0.14703555405139923,0.14703555405139923,0.0005,0.019111111760139465,1.8134089708328247,1.8134089708328247
109,0.9580000042915344,0.14614036679267883,0.14614036679267883,0.0005,0.019111111760139465,1.8128892183303833,1.8128892183303833
110,0.9580000042915344,0.14664101600646973,0.14664101600646973,0.0005,0.019111111760139465,1.8140188455581665,1.8140188455581665
111,0.9580000042915344,0.1464480608701706,0.1464480608701706,0.0005,0.019111111760139465,1.8116244077682495,1.8116244077682495
112,0.9580000042915344,0.14474795758724213,0.14474795758724213,0.0005,0.019111111760139465,1.8108748197555542,1.8108748197555542
113,0.9580000042915344,0.14244647324085236,0.14244647324085236,0.0005,0.019111111760139465,1.8099150657653809,1.8099150657653809
114,0.9580000042915344,0.14170444011688232,0.14170444011688232,0.0005,0.019111111760139465,1.8074142932891846,1.8074142932891846
115,0.9580000042915344,0.14229992032051086,0.14229992032051086,0.0005,0.019111111760139465,1.8061487674713135,1.8061487674713135
116,0.9580000042915344,0.142597958445549,0.142597958445549,0.0005,0.019111111760139465,1.8012689352035522,1.8012689352035522
117,0.9580000042915344,0.1409650593996048,0.1409650593996048,0.0005,0.019111111760139465,1.8006937503814697,1.8006937503814697
118,0.9580000042915344,0.13816888630390167,0.13816888630390167,0.0005,0.019111111760139465,1.7994221448898315,1.7994221448898315
119,0.9599999785423279,0.13761991262435913,0.13761991262435913,0.0005,0.019111111760139465,1.7956137657165527,1.7956137657165527
120,0.9580000042915344,0.13849303126335144,0.13849303126335144,0.0005,0.019111111760139465,1.7943849563598633,1.7943849563598633
121,0.9599999785423279,0.1385868638753891,0.1385868638753891,0.0005,0.019111111760139465,1.7890558242797852,1.7890558242797852
122,0.9580000042915344,0.13608242571353912,0.13608242571353912,0.0005,0.019111111760139465,1.7870365381240845,1.7870365381240845
123,0.9580000042915344,0.13383625447750092,0.13383625447750092,0.0005,0.019111111760139465,1.7831920385360718,1.7831920385360718
124,0.9599999785423279,0.13365662097930908,0.13365662097930908,0.0005,0.019111111760139465,1.776326060295105,1.776326060295105
125,0.9580000042915344,0.134690523147583,0.134690523147583,0.00025,0.019111111760139465,1.7777169942855835,1.7777169942855835
126,0.9599999785423279,0.13162972033023834,0.13162972033023834,0.00025,0.019111111760139465,1.7794532775878906,1.7794532775878906
127,0.9599999785423279,0.1335229128599167,0.1335229128599167,0.00025,0.019111111760139465,1.779172420501709,1.779172420501709
128,0.9620000123977661,0.1307491511106491,0.1307491511106491,0.00025,0.019111111760139465,1.7776440382003784,1.7776440382003784
129,0.9620000123977661,0.13212274014949799,0.13212274014949799,0.00025,0.019111111760139465,1.7772232294082642,1.7772232294082642
130,0.9580000042915344,0.1299283802509308,0.1299283802509308,0.00025,0.019111111760139465,1.7769737243652344,1.7769737243652344
131,0.9599999785423279,0.13093242049217224,0.13093242049217224,0.00025,0.019111111760139465,1.7749722003936768,1.7749722003936768
132,0.9599999785423279,0.12906433641910553,0.12906433641910553,0.00025,0.019111111760139465,1.7726337909698486,1.7726337909698486
133,0.9620000123977661,0.12973812222480774,0.12973812222480774,0.00025,0.019111111760139465,1.7719312906265259,1.7719312906265259
134,0.9639999866485596,0.12815934419631958,0.12815934419631958,0.00025,0.019111111760139465,1.771386742591858,1.771386742591858
135,0.9620000123977661,0.12869893014431,0.12869893014431,0.00025,0.019111111760139465,1.7690593004226685,1.7690593004226685
136,0.9620000123977661,0.12720470130443573,0.12720470130443573,0.00025,0.019111111760139465,1.7665950059890747,1.7665950059890747
137,0.9620000123977661,0.1276606321334839,0.1276606321334839,0.00025,0.019111111760139465,1.7667100429534912,1.7667100429534912
138,0.9639999866485596,0.1261865794658661,0.1261865794658661,0.00025,0.019333332777023315,1.766715168952942,1.766715168952942
139,0.9620000123977661,0.12670151889324188,0.12670151889324188,0.00025,0.019333332777023315,1.7640690803527832,1.7640690803527832
140,0.9639999866485596,0.12529686093330383,0.12529686093330383,0.00025,0.019333332777023315,1.7613071203231812,1.7613071203231812
141,0.9639999866485596,0.12552553415298462,0.12552553415298462,0.00025,0.019555555656552315,1.7603951692581177,1.7603951692581177
142,0.9639999866485596,0.1244937852025032,0.1244937852025032,0.00025,0.019555555656552315,1.7590608596801758,1.7590608596801758
143,0.9639999866485596,0.1243312805891037,0.1243312805891037,0.00025,0.020222222432494164,1.7564470767974854,1.7564470767974854
144,0.9639999866485596,0.1238163635134697,0.1238163635134697,0.00025,0.02222222276031971,1.754923939704895,1.754923939704895
145,0.9639999866485596,0.12310802936553955,0.12310802936553955,0.00025,0.030444445088505745,1.7537684440612793,1.7537684440612793
146,0.9639999866485596,0.12304942309856415,0.12304942309856415,0.00025,0.03133333474397659,1.7511940002441406,1.7511940002441406
147,0.9639999866485596,0.12210901081562042,0.12210901081562042,0.00025,0.03200000151991844,1.7496706247329712,1.7496706247329712
148,0.9639999866485596,0.12199769914150238,0.12199769914150238,0.00025,0.03866666555404663,1.749327301979065,1.749327301979065
149,0.9639999866485596,0.12141763418912888,0.12141763418912888,0.00025,0.040888890624046326,1.7468013763427734,1.7468013763427734
150,0.9639999866485596,0.12078811973333359,0.12078811973333359,0.00025,0.04444444552063942,1.7429579496383667,1.7429579496383667
151,0.9639999866485596,0.12064114958047867,0.12064114958047867,0.00025,0.04866666719317436,1.7415614128112793,1.7415614128112793
152,0.9639999866485596,0.11991322040557861,0.11991322040557861,0.00025,0.05044444277882576,1.7395211458206177,1.7395211458206177
153,0.9639999866485596,0.11946291476488113,0.11946291476488113,0.00025,0.05177777633070946,1.7359153032302856,1.7359153032302856
154,0.9639999866485596,0.11925391107797623,0.11925391107797623,0.00025,0.059333331882953644,1.7335891723632812,1.7335892915725708
155,0.9639999866485596,0.1185297891497612,0.1185297891497612,0.00025,0.07244444638490677,1.7305794954299927,1.7305794954299927
156,0.9639999866485596,0.1180836483836174,0.1180836483836174,0.00025,0.07822222262620926,1.7270115613937378,1.7270115613937378
157,0.9639999866485596,0.1178387999534607,0.1178387999534607,0.00025,0.1128888875246048,1.7255024909973145,1.7255024909973145
158,0.9639999866485596,0.1172437071800232,0.1172437071800232,0.00025,0.14911110699176788,1.7220888137817383,1.7220888137817383
159,0.9639999866485596,0.1166296973824501,0.1166296973824501,0.00025,0.18266665935516357,1.7186743021011353,1.7186743021011353
160,0.9639999866485596,0.11632313579320908,0.11632313579320908,0.00025,0.2253333330154419,1.7176252603530884,1.7176252603530884
161,0.9639999866485596,0.11589107662439346,0.11589107662439346,0.00025,0.25066667795181274,1.7142412662506104,1.7142412662506104
162,0.9639999866485596,0.11531206965446472,0.11531206965446472,0.00025,0.29777777194976807,1.71112859249115,1.71112859249115
163,0.9639999866485596,0.11478174477815628,0.11478174477815628,0.00025,0.3306666612625122,1.707658052444458,1.707658052444458
164,0.9639999866485596,0.11436580121517181,0.11436580121517181,0.00025,0.3400000035762787,1.7039141654968262,1.7039141654968262
165,0.9639999866485596,0.11405386030673981,0.11405386030673981,0.00025,0.3484444320201874,1.7021421194076538,1.7021421194076538
166,0.9639999866485596,0.11370910704135895,0.11370910704135895,0.00025,0.3508888781070709,1.6973965167999268,1.6973965167999268
167,0.9639999866485596,0.11311958730220795,0.11311958730220795,0.00025,0.3522222340106964,1.695304274559021,1.695304274559021
168,0.9639999866485596,0.11253542453050613,0.11253542453050613,0.00025,0.3526666760444641,1.6926054954528809,1.6926054954528809
169,0.9639999866485596,0.11196456104516983,0.11196456104516983,0.00025,0.3526666760444641,1.6897186040878296,1.6897186040878296
170,0.9639999866485596,0.11152813583612442,0.11152813583612442,0.00025,0.3531111180782318,1.6873165369033813,1.6873165369033813
171,0.9660000205039978,0.11125699430704117,0.11125699430704117,0.00025,0.35333332419395447,1.6827455759048462,1.6827455759048462
172,0.9639999866485596,0.11119167506694794,0.11119167506694794,0.00025,0.35333332419395447,1.6827869415283203,1.6827869415283203
173,0.9660000205039978,0.11114563047885895,0.11114563047885895,0.00025,0.35333332419395447,1.6775949001312256,1.6775949001312256
174,0.9639999866485596,0.11067571491003036,0.11067571491003036,0.00025,0.35333332419395447,1.6763789653778076,1.6763789653778076
175,0.9660000205039978,0.10975442826747894,0.10975442826747894,0.000125,0.35333332419395447,1.6750123500823975,1.6750123500823975
176,0.9660000205039978,0.10897812247276306,0.10897812247276306,0.000125,0.35333332419395447,1.6735796928405762,1.6735796928405762
177,0.9660000205039978,0.10915930569171906,0.10915930569171906,0.000125,0.35333332419395447,1.6738746166229248,1.6738746166229248
178,0.9660000205039978,0.10848204046487808,0.10848204046487808,0.000125,0.35333332419395447,1.6743401288986206,1.6743401288986206
179,0.9660000205039978,0.10861470550298691,0.10861470550298691,0.000125,0.35333332419395447,1.6728322505950928,1.6728322505950928
180,0.9660000205039978,0.10800331830978394,0.10800331830978394,0.000125,0.35333332419395447,1.670581340789795,1.670581340789795
181,0.9660000205039978,0.10809021443128586,0.10809021443128586,0.000125,0.35333332419395447,1.670495867729187,1.670495867729187
182,0.9660000205039978,0.10748922824859619,0.10748922824859619,0.000125,0.35333332419395447,1.6707226037979126,1.6707226037979126
183,0.9660000205039978,0.10757964849472046,0.10757964849472046,0.000125,0.35333332419395447,1.6690399646759033,1.6690399646759033
184,0.9660000205039978,0.10700720548629761,0.10700720548629761,0.000125,0.35333332419395447,1.666717767715454,1.666717767715454
185,0.9660000205039978,0.10706841945648193,0.10706841945648193,0.000125,0.35333332419395447,1.6660561561584473,1.6660561561584473
186,0.9660000205039978,0.10650724172592163,0.10650724172592163,0.000125,0.35333332419395447,1.6658252477645874,1.6658252477645874
187,0.9660000205039978,0.10653328895568848,0.10653328895568848,0.000125,0.35333332419395447,1.6644566059112549,1.6644566059112549
188,0.9660000205039978,0.10601362586021423,0.10601362586021423,0.000125,0.35333332419395447,1.6630092859268188,1.6630092859268188
189,0.9660000205039978,0.10599341988563538,0.10599341988563538,0.000125,0.35333332419395447,1.6624376773834229,1.6624376773834229
190,0.9660000205039978,0.10553164035081863,0.10553164035081863,0.000125,0.35333332419395447,1.6618542671203613,1.6618542671203613
191,0.9660000205039978,0.10543619841337204,0.10543619841337204,0.000125,0.35333332419395447,1.6598635911941528,1.6598635911941528
192,0.9660000205039978,0.10507641732692719,0.10507641732692719,0.000125,0.35333332419395447,1.6587071418762207,1.6587071418762207
193,0.9660000205039978,0.1048731729388237,0.1048731729388237,0.000125,0.35333332419395447,1.6584120988845825,1.6584120988845825
194,0.9660000205039978,0.10463474690914154,0.10463474690914154,0.000125,0.35333332419395447,1.656956434249878,1.656956434249878
195,0.9660000205039978,0.10432308167219162,0.10432308167219162,0.000125,0.35333332419395447,1.6549392938613892,1.6549392938613892
196,0.9660000205039978,0.1041630432009697,0.1041630432009697,0.000125,0.35333332419395447,1.6543751955032349,1.6543751955032349
197,0.9660000205039978,0.1038113534450531,0.1038113534450531,0.000125,0.35333332419395447,1.6541086435317993,1.6541086435317993
198,0.9660000205039978,0.1036553904414177,0.1036553904414177,0.000125,0.35333332419395447,1.6524620056152344,1.6524620056152344
199,0.9660000205039978,0.1033569872379303,0.1033569872379303,0.000125,0.35333332419395447,1.6515371799468994,1.6515371799468994
200,0.9660000205039978,0.10308525711297989,0.10308525711297989,0.000125,0.35333332419395447,1.6513227224349976,1.6513227224349976
201,0.9660000205039978,0.10291270166635513,0.10291270166635513,0.000125,0.35333332419395447,1.6498867273330688,1.6498867273330688
202,0.9660000205039978,0.10258190333843231,0.10258190333843231,0.000125,0.35333332419395447,1.6488142013549805,1.6488142013549805
203,0.9660000205039978,0.10235321521759033,0.10235321521759033,0.000125,0.35333332419395447,1.6485958099365234,1.6485958099365234
204,0.9660000205039978,0.10213086754083633,0.10213086754083633,0.000125,0.35333332419395447,1.6469717025756836,1.6469717025756836
205,0.9660000205039978,0.1018262505531311,0.1018262505531311,0.000125,0.35333332419395447,1.6453462839126587,1.6453462839126587
206,0.9660000205039978,0.101626917719841,0.101626917719841,0.000125,0.35333332419395447,1.6447312831878662,1.6447312831878662
207,0.9660000205039978,0.10137208551168442,0.10137208551168442,0.000125,0.35333332419395447,1.6436121463775635,1.6436121463775635
208,0.9660000205039978,0.10108064115047455,0.10108064115047455,0.000125,0.35333332419395447,1.6425563097000122,1.6425563097000122
209,0.9679999947547913,0.10085997730493546,0.10085997730493546,0.000125,0.35333332419395447,1.6422356367111206,1.6422356367111206
210,0.9679999947547913,0.10061456263065338,0.10061456263065338,0.000125,0.35333332419395447,1.6414023637771606,1.6414023637771606
211,0.9700000286102295,0.10033057630062103,0.10033057630062103,0.000125,0.35333332419395447,1.6404733657836914,1.6404733657836914
212,0.9700000286102295,0.10009187459945679,0.10009187459945679,0.000125,0.35333332419395447,1.6401022672653198,1.6401022672653198
213,0.9679999947547913,0.09987190365791321,0.09987190365791321,0.000125,0.35333332419395447,1.6385903358459473,1.6385903358459473
214,0.9700000286102295,0.09960509091615677,0.09960509091615677,0.000125,0.35333332419395447,1.6378177404403687,1.6378177404403687
215,0.9700000286102295,0.09931796789169312,0.09931796789169312,0.000125,0.35333332419395447,1.6370832920074463,1.6370832920074463
216,0.9700000286102295,0.09908626973628998,0.09908626973628998,0.000125,0.35333332419395447,1.6356019973754883,1.6356019973754883
217,0.9700000286102295,0.09887979179620743,0.09887979179620743,0.000125,0.35333332419395447,1.6349096298217773,1.6349096298217773
218,0.9700000286102295,0.09862574189901352,0.09862574189901352,0.000125,0.35333332419395447,1.6329870223999023,1.6329870223999023
219,0.9700000286102295,0.09835987538099289,0.09835987538099289,0.000125,0.35333332419395447,1.6326138973236084,1.6326138973236084
220,0.9700000286102295,0.09807245433330536,0.09807245433330536,0.000125,0.35333332419395447,1.6315354108810425,1.6315354108810425
221,0.9700000286102295,0.09779353439807892,0.09779353439807892,0.000125,0.35333332419395447,1.6300355195999146,1.6300355195999146
222,0.9700000286102295,0.09756360948085785,0.09756360948085785,0.000125,0.35333332419395447,1.6290371417999268,1.6290371417999268
223,0.9700000286102295,0.09730975329875946,0.09730975329875946,0.000125,0.35333332419395447,1.6275064945220947,1.6275064945220947
224,0.9700000286102295,0.09707873314619064,0.09707873314619064,0.000125,0.35333332419395447,1.6268761157989502,1.6268761157989502
225,0.9700000286102295,0.09681938588619232,0.09681938588619232,1e-04,0.35333332419395447,1.6253801584243774,1.6253801584243774
226,0.9700000286102295,0.0965692475438118,0.0965692475438118,1e-04,0.35333332419395447,1.624714732170105,1.624714732170105
227,0.9700000286102295,0.09635606408119202,0.09635606408119202,1e-04,0.35333332419395447,1.6243958473205566,1.6243958473205566
228,0.9700000286102295,0.09616260975599289,0.09616260975599289,1e-04,0.35333332419395447,1.6230895519256592,1.6230895519256592
229,0.9700000286102295,0.09594397246837616,0.09594397246837616,1e-04,0.35333332419395447,1.6224955320358276,1.6224955320358276
230,0.9700000286102295,0.09570212662220001,0.09570212662220001,1e-04,0.35333332419395447,1.6217896938323975,1.6217896938323975
231,0.9700000286102295,0.09550775587558746,0.09550775587558746,1e-04,0.35333332419395447,1.6204534769058228,1.6204534769058228
232,0.9700000286102295,0.09530220925807953,0.09530220925807953,1e-04,0.35333332419395447,1.6193112134933472,1.6193112134933472
233,0.9700000286102295,0.09506934881210327,0.09506934881210327,1e-04,0.35333332419395447,1.6177167892456055,1.6177167892456055
234,0.9700000286102295,0.09484098106622696,0.09484098106622696,1e-04,0.35333332419395447,1.6165425777435303,1.6165425777435303
235,0.9700000286102295,0.09462665021419525,0.09462665021419525,1e-04,0.35333332419395447,1.6159709692001343,1.6159709692001343
236,0.9700000286102295,0.0944182425737381,0.0944182425737381,1e-04,0.35333332419395447,1.6146135330200195,1.6146135330200195
237,0.9700000286102295,0.09419906884431839,0.09419906884431839,1e-04,0.35333332419395447,1.6134179830551147,1.6134178638458252
238,0.9700000286102295,0.09397000819444656,0.09397000819444656,1e-04,0.35333332419395447,1.6123409271240234,1.6123409271240234
239,0.9700000286102295,0.09374911338090897,0.09374911338090897,1e-04,0.35333332419395447,1.6113712787628174,1.6113712787628174
240,0.9700000286102295,0.09354030340909958,0.09354030340909958,1e-04,0.35333332419395447,1.6107691526412964,1.6107691526412964
241,0.9700000286102295,0.0933414176106453,0.0933414176106453,1e-04,0.35333332419395447,1.6087210178375244,1.6087210178375244
242,0.9700000286102295,0.09310828894376755,0.09310828894376755,1e-04,0.35333332419395447,1.6076909303665161,1.6076909303665161
243,0.9700000286102295,0.09288918972015381,0.09288918972015381,1e-04,0.35333332419395447,1.6060084104537964,1.6060084104537964
244,0.9700000286102295,0.09265732020139694,0.09265732020139694,1e-04,0.35333332419395447,1.6047708988189697,1.6047708988189697
245,0.9700000286102295,0.09242723882198334,0.09242723882198334,1e-04,0.35333332419395447,1.6029376983642578,1.6029376983642578
246,0.972000002861023,0.09221359342336655,0.09221359342336655,1e-04,0.3531111180782318,1.6019110679626465,1.6019110679626465
247,0.972000002861023,0.09198558330535889,0.09198558330535889,1e-04,0.3531111180782318,1.6003313064575195,1.6003313064575195
248,0.972000002861023,0.09176714718341827,0.09176714718341827,1e-04,0.35288888216018677,1.598880648612976,1.598880648612976
249,0.972000002861023,0.09156297147274017,0.09156297147274017,1e-04,0.35288888216018677,1.5970802307128906,1.5970802307128906
250,0.972000002861023,0.09132135659456253,0.09132135659456253,1e-04,0.3526666760444641,1.5958958864212036,1.5958958864212036
251,0.972000002861023,0.09109193831682205,0.09109193831682205,1e-04,0.35288888216018677,1.5942378044128418,1.5942378044128418
252,0.972000002861023,0.09086320549249649,0.09086320549249649,1e-04,0.35288888216018677,1.593000054359436,1.593000054359436
253,0.972000002861023,0.0906800925731659,0.0906800925731659,1e-04,0.3526666760444641,1.5913828611373901,1.5913828611373901
254,0.972000002861023,0.0904780849814415,0.0904780849814415,1e-04,0.3526666760444641,1.591439127922058,1.591439127922058
255,0.9739999771118164,0.09032978117465973,0.09032978117465973,1e-04,0.3526666760444641,1.5881820917129517,1.5881820917129517
256,0.972000002861023,0.09022624790668488,0.09022624790668488,1e-04,0.3526666760444641,1.5882762670516968,1.5882762670516968
257,0.9739999771118164,0.08990418910980225,0.08990418910980225,1e-04,0.35288888216018677,1.5858218669891357,1.5858218669891357
258,0.972000002861023,0.08963029086589813,0.08963029086589813,1e-04,0.35288888216018677,1.5856882333755493,1.5856882333755493
259,0.9739999771118164,0.08933847397565842,0.08933847397565842,1e-04,0.35288888216018677,1.5837541818618774,1.5837541818618774
260,0.972000002861023,0.08909144997596741,0.08909144997596741,1e-04,0.3526666760444641,1.583033800125122,1.583033800125122
261,0.972000002861023,0.08885092288255692,0.08885092288255692,1e-04,0.3522222340106964,1.5816360712051392,1.5816360712051392
262,0.972000002861023,0.08863523602485657,0.08863523602485657,1e-04,0.3522222340106964,1.5799834728240967,1.5799834728240967
263,0.9739999771118164,0.08838125318288803,0.08838125318288803,1e-04,0.35244444012641907,1.5783898830413818,1.5783898830413818
264,0.9739999771118164,0.08817277103662491,0.08817277103662491,1e-04,0.35155555605888367,1.577985405921936,1.577985405921936
265,0.9739999771118164,0.08791743963956833,0.08791743963956833,1e-04,0.3504444360733032,1.5769391059875488,1.5769391059875488
266,0.9739999771118164,0.08773075044155121,0.08773075044155121,1e-04,0.35022222995758057,1.5750621557235718,1.5750621557235718
267,0.9739999771118164,0.08746150135993958,0.08746150135993958,1e-04,0.34977778792381287,1.5733449459075928,1.5733449459075928
268,0.9739999771118164,0.08725307136774063,0.08725307136774063,1e-04,0.34977778792381287,1.5720906257629395,1.5720906257629395
269,0.9760000109672546,0.08701840043067932,0.08701840043067932,1e-04,0.3495555520057678,1.5700362920761108,1.5700362920761108
270,0.9739999771118164,0.08679615706205368,0.08679615706205368,1e-04,0.34933334589004517,1.5687428712844849,1.5687428712844849
271,0.9779999852180481,0.08657130599021912,0.08657130599021912,1e-04,0.3491111099720001,1.566527009010315,1.566527009010315
272,0.9760000109672546,0.08642768114805222,0.08642768114805222,1e-04,0.3491111099720001,1.5665429830551147,1.5665429830551147
273,0.9779999852180481,0.08635978400707245,0.08635978400707245,1e-04,0.3473333418369293,1.5618902444839478,1.5618902444839478
274,0.9739999771118164,0.08660881221294403,0.08660881221294403,1e-04,0.3482222259044647,1.5644488334655762,1.5644488334655762
275,0.9779999852180481,0.08674460649490356,0.08674460649490356,1e-04,0.3468888998031616,1.559553861618042,1.559553861618042
276,0.9739999771118164,0.0862278863787651,0.0862278863787651,1e-04,0.3466666638851166,1.560709834098816,1.560709834098816
277,0.9779999852180481,0.08541692793369293,0.08541692793369293,1e-04,0.3466666638851166,1.558653473854065,1.5586533546447754
278,0.9779999852180481,0.08502095937728882,0.08502095937728882,1e-04,0.3468888998031616,1.5548192262649536,1.5548192262649536
279,0.9739999771118164,0.08533679693937302,0.08533679693937302,1e-04,0.3468888998031616,1.5561389923095703,1.5561389923095703
280,0.9779999852180481,0.08521575480699539,0.08521575480699539,1e-04,0.3466666638851166,1.5504016876220703,1.5504016876220703
281,0.9739999771118164,0.08473820984363556,0.08473820984363556,1e-04,0.3466666638851166,1.5501009225845337,1.5501009225845337
282,0.9779999852180481,0.08422895520925522,0.08422895520925522,1e-04,0.3466666638851166,1.5481675863265991,1.5481675863265991
283,0.9779999852180481,0.08383016288280487,0.08383016288280487,1e-04,0.3462222218513489,1.5460463762283325,1.5460463762283325
284,0.9779999852180481,0.0837666392326355,0.0837666392326355,1e-04,0.3466666638851166,1.5457935333251953,1.5457935333251953
285,0.9779999852180481,0.08364830911159515,0.08364830911159515,1e-04,0.3457777798175812,1.5409572124481201,1.5409572124481201
286,0.9779999852180481,0.08350668102502823,0.08350668102502823,1e-04,0.3462222218513489,1.541102647781372,1.541102647781372
287,0.9779999852180481,0.08313098549842834,0.08313098549842834,1e-04,0.34599998593330383,1.5379770994186401,1.5379770994186401
288,0.9779999852180481,0.08274243026971817,0.08274243026971817,1e-04,0.3462222218513489,1.5363692045211792,1.5363692045211792
289,0.9779999852180481,0.08246497809886932,0.08246497809886932,1e-04,0.3462222218513489,1.534059762954712,1.534059762954712
290,0.9779999852180481,0.08222348988056183,0.08222348988056183,1e-04,0.3464444577693939,1.530622124671936,1.530622124671936
291,0.9779999852180481,0.08213277906179428,0.08213277906179428,1e-04,0.3466666638851166,1.5310720205307007,1.5310720205307007
292,0.9779999852180481,0.08215205371379852,0.08215205371379852,1e-04,0.3457777798175812,1.5254642963409424,1.5254641771316528
293,0.9760000109672546,0.08227656781673431,0.08227656781673431,1e-04,0.3466666638851166,1.5271927118301392,1.5271927118301392
294,0.9779999852180481,0.08215953409671783,0.08215953409671783,1e-04,0.34555554389953613,1.5214316844940186,1.5214316844940186
295,0.9779999852180481,0.0816732794046402,0.0816732794046402,1e-04,0.3457777798175812,1.5215712785720825,1.5215712785720825
296,0.9779999852180481,0.08098450303077698,0.08098450303077698,1e-04,0.3457777798175812,1.5192139148712158,1.5192139148712158
297,0.9779999852180481,0.08063808083534241,0.08063808083534241,1e-04,0.3457777798175812,1.5155024528503418,1.5155024528503418
298,0.9779999852180481,0.08071974664926529,0.08071974664926529,1e-04,0.3464444577693939,1.5159955024719238,1.5159955024719238
299,0.9779999852180481,0.08087365329265594,0.08087365329265594,1e-04,0.34599998593330383,1.5094271898269653,1.5094271898269653
300,0.9779999852180481,0.08092939108610153,0.08092939108610153,1e-04,0.3464444577693939,1.5117383003234863,1.5117383003234863
301,0.9779999852180481,0.08034142851829529,0.08034142851829529,1e-04,0.3457777798175812,1.5080119371414185,1.5080119371414185
302,0.9779999852180481,0.07958387583494186,0.07958387583494186,1e-04,0.34555554389953613,1.5056275129318237,1.5056275129318237
303,0.9779999852180481,0.0793679803609848,0.0793679803609848,1e-04,0.3462222218513489,1.505262851715088,1.505262851715088
304,0.9779999852180481,0.07948654890060425,0.07948654890060425,1e-04,0.34555554389953613,1.5000892877578735,1.5000892877578735
305,0.9779999852180481,0.0795111134648323,0.0795111134648323,1e-04,0.3464444577693939,1.5019372701644897,1.5019372701644897
306,0.9779999852180481,0.07908336073160172,0.07908336073160172,1e-04,0.3462222218513489,1.4965708255767822,1.4965708255767822
307,0.9779999852180481,0.0785239115357399,0.0785239115357399,1e-04,0.3462222218513489,1.4944506883621216,1.4944506883621216
308,0.9779999852180481,0.07819754630327225,0.07819754630327225,1e-04,0.3462222218513489,1.4935986995697021,1.4935986995697021
309,0.9779999852180481,0.07808177173137665,0.07808177173137665,1e-04,0.34599998593330383,1.4898144006729126,1.4898144006729126
310,0.9779999852180481,0.0781111940741539,0.0781111940741539,1e-04,0.3473333418369293,1.490464210510254,1.490464210510254
311,0.9779999852180481,0.07805535942316055,0.07805535942316055,1e-04,0.3457777798175812,1.4840458631515503,1.4840458631515503
312,0.9779999852180481,0.07777105271816254,0.07777105271816254,1e-04,0.3464444577693939,1.4845162630081177,1.4845162630081177
313,0.9800000190734863,0.07729846239089966,0.07729846239089966,1e-04,0.3462222218513489,1.4814426898956299,1.4814426898956299
314,0.9779999852180481,0.07686914503574371,0.07686914503574371,1e-04,0.3462222218513489,1.4789563417434692,1.4789563417434692
315,0.9779999852180481,0.07659577578306198,0.07659577578306198,1e-04,0.3466666638851166,1.4766029119491577,1.4766029119491577
316,0.9779999852180481,0.0764780044555664,0.0764780044555664,1e-04,0.34599998593330383,1.4722596406936646,1.4722596406936646
317,0.9779999852180481,0.07643971592187881,0.07643971592187881,1e-04,0.3479999899864197,1.4726629257202148,1.4726629257202148
318,0.9800000190734863,0.07640685141086578,0.07640685141086578,1e-04,0.347777783870697,1.465718150138855,1.465718150138855
319,0.9779999852180481,0.07633558660745621,0.07633558660745621,1e-04,0.3484444320201874,1.4659249782562256,1.4659249782562256
320,0.9800000190734863,0.07610643655061722,0.07610643655061722,1e-04,0.3473333418369293,1.460214614868164,1.460214614868164
321,0.9779999852180481,0.07566343992948532,0.07566343992948532,1e-04,0.3484444320201874,1.460992455482483,1.460992455482483
322,0.9800000190734863,0.07521718740463257,0.07521718740463257,1e-04,0.3482222259044647,1.4571237564086914,1.4571237564086914
323,0.9800000190734863,0.07483246922492981,0.07483246922492981,1e-04,0.3491111099720001,1.4537979364395142,1.4537979364395142
324,0.9800000190734863,0.07461357116699219,0.07461357116699219,1e-04,0.3499999940395355,1.4512346982955933,1.4512346982955933
325,0.9800000190734863,0.0744687169790268,0.0744687169790268,1e-04,0.3499999940395355,1.4453551769256592,1.4453551769256592
326,0.9800000190734863,0.07450110465288162,0.07450110465288162,1e-04,0.34933334589004517,1.445543646812439,1.445543646812439
327,0.9800000190734863,0.07460217922925949,0.07460217922925949,1e-04,0.3504444360733032,1.4388965368270874,1.4388965368270874
328,0.9800000190734863,0.0746639147400856,0.0746639147400856,1e-04,0.35022222995758057,1.440544843673706,1.440544843673706
329,0.9800000190734863,0.07450491189956665,0.07450491189956665,1e-04,0.3499999940395355,1.4323275089263916,1.4323275089263916
330,0.9800000190734863,0.0739344134926796,0.0739344134926796,1e-04,0.35022222995758057,1.4313685894012451,1.4313685894012451
331,0.9800000190734863,0.07332970201969147,0.07332970201969147,1e-04,0.3499999940395355,1.426194190979004,1.4261943101882935
332,0.9800000190734863,0.07290387898683548,0.07290387898683548,1e-04,0.35066667199134827,1.422727108001709,1.422727108001709
333,0.9800000190734863,0.07274181395769119,0.07274181395769119,1e-04,0.35066667199134827,1.4220595359802246,1.4220595359802246
334,0.9800000190734863,0.07286226004362106,0.07286226004362106,1e-04,0.35199999809265137,1.4142283201217651,1.4142283201217651
335,0.9800000190734863,0.07314199954271317,0.07314199954271317,1e-04,0.35155555605888367,1.4163607358932495,1.4163607358932495
336,0.9800000190734863,0.07310012727975845,0.07310012727975845,1e-04,0.3535555601119995,1.407813549041748,1.407813549041748
337,0.9800000190734863,0.07260371744632721,0.07260371744632721,1e-04,0.3535555601119995,1.4069491624832153,1.4069491624832153
338,0.9800000190734863,0.07180453836917877,0.07180453836917877,1e-04,0.35377776622772217,1.4017552137374878,1.4017552137374878
339,0.9800000190734863,0.07135158032178879,0.07135158032178879,1e-04,0.35377776622772217,1.3960553407669067,1.3960553407669067
340,0.9800000190734863,0.0714016705751419,0.0714016705751419,1e-04,0.35422220826148987,1.3954813480377197,1.3954813480377197
341,0.9800000190734863,0.07152842730283737,0.07152842730283737,1e-04,0.35333332419395447,1.386944055557251,1.386944055557251
342,0.9800000190734863,0.07162042707204819,0.07162042707204819,1e-04,0.35422220826148987,1.3880442380905151,1.3880442380905151
343,0.9800000190734863,0.0713110864162445,0.0713110864162445,1e-04,0.35422220826148987,1.3815096616744995,1.3815096616744995
344,0.9800000190734863,0.07058463245630264,0.07058463245630264,1e-04,0.35422220826148987,1.378043532371521,1.378043532371521
345,0.9800000190734863,0.07009326666593552,0.07009326666593552,1e-04,0.3544444441795349,1.3751709461212158,1.3751709461212158
346,0.9800000190734863,0.0700795128941536,0.0700795128941536,1e-04,0.3548888862133026,1.3685643672943115,1.3685643672943115
347,0.9800000190734863,0.07037720084190369,0.07037720084190369,1e-04,0.35466668009757996,1.3707939386367798,1.3707939386367798
348,0.9800000190734863,0.07058548927307129,0.07058548927307129,1e-04,0.3544444441795349,1.3606854677200317,1.3606854677200317
349,0.9800000190734863,0.07028977572917938,0.07028977572917938,1e-04,0.3548888862133026,1.3604949712753296,1.3604949712753296
350,0.9800000190734863,0.06947380304336548,0.06947380304336548,1e-04,0.3553333282470703,1.3546624183654785,1.3546624183654785
351,0.9800000190734863,0.06888370215892792,0.06888370215892792,1e-04,0.3571110963821411,1.349105954170227,1.349105954170227
352,0.9800000190734863,0.06880013644695282,0.06880013644695282,1e-04,0.3553333282470703,1.348734974861145,1.348734974861145
353,0.9800000190734863,0.06903751939535141,0.06903751939535141,1e-04,0.35777777433395386,1.3395832777023315,1.3395832777023315
354,0.9800000190734863,0.06906917691230774,0.06906917691230774,1e-04,0.35511112213134766,1.3418104648590088,1.3418104648590088
355,0.9800000190734863,0.06873908638954163,0.06873908638954163,1e-04,0.3575555682182312,1.3319498300552368,1.3319498300552368
356,0.9800000190734863,0.06823568791151047,0.06823568791151047,1e-04,0.35688889026641846,1.3287439346313477,1.3287439346313477
357,0.9800000190734863,0.06763646751642227,0.06763646751642227,1e-04,0.359333336353302,1.324609637260437,1.324609637260437
358,0.9800000190734863,0.06736510992050171,0.06736510992050171,1e-04,0.36088889837265015,1.3196550607681274,1.3196550607681274
359,0.9800000190734863,0.06729111075401306,0.06729111075401306,1e-04,0.359333336353302,1.319678544998169,1.319678544998169
360,0.9800000190734863,0.06738404184579849,0.06738404184579849,1e-04,0.36399999260902405,1.3114222288131714,1.3114222288131714
361,0.9800000190734863,0.06747087091207504,0.06747087091207504,1e-04,0.3597777783870697,1.313180685043335,1.313180685043335
362,0.9819999933242798,0.06734821200370789,0.06734821200370789,1e-04,0.36711111664772034,1.3023468255996704,1.3023468255996704
363,0.9800000190734863,0.06682739406824112,0.06682739406824112,1e-04,0.36533331871032715,1.3005523681640625,1.3005523681640625
364,0.9800000190734863,0.06622069329023361,0.06622069329023361,1e-04,0.3682222366333008,1.2965116500854492,1.2965116500854492
365,0.9800000190734863,0.06587379425764084,0.06587379425764084,1e-04,0.3733333349227905,1.2919573783874512,1.2919573783874512
366,0.9800000190734863,0.06588564068078995,0.06588564068078995,1e-04,0.36711111664772034,1.2927262783050537,1.2927262783050537
367,0.9819999933242798,0.06605642288923264,0.06605642288923264,1e-04,0.382666677236557,1.2812696695327759,1.2812696695327759
368,0.9800000190734863,0.06608904898166656,0.06608904898166656,1e-04,0.370888888835907,1.2824864387512207,1.2824864387512207
369,0.9819999933242798,0.06606864184141159,0.06606864184141159,1e-04,0.3857777714729309,1.2731859683990479,1.2731859683990479
370,0.9800000190734863,0.0653882771730423,0.0653882771730423,1e-04,0.38022223114967346,1.2726787328720093,1.2726787328720093
371,0.9819999933242798,0.06475038826465607,0.06475038826465607,1e-04,0.3844444453716278,1.2691891193389893,1.2691891193389893
372,0.9800000190734863,0.0643739104270935,0.0643739104270935,1e-04,0.3919999897480011,1.2636100053787231,1.2636100053787231
373,0.9800000190734863,0.06442135572433472,0.06442135572433472,1e-04,0.38244444131851196,1.2624274492263794,1.2624274492263794
374,0.9819999933242798,0.06463123112916946,0.06463123112916946,1e-04,0.4020000100135803,1.2512308359146118,1.2512308359146118
375,0.9800000190734863,0.06476017832756042,0.06476017832756042,1e-04,0.3831111192703247,1.25534188747406,1.25534188747406
376,0.9819999933242798,0.06483149528503418,0.06483149528503418,1e-04,0.4028888940811157,1.2435282468795776,1.2435282468795776
377,0.9800000190734863,0.06428548693656921,0.06428548693656921,1e-04,0.3968888819217682,1.2449758052825928,1.2449758052825928
378,0.9819999933242798,0.06344866007566452,0.06344866007566452,1e-04,0.3977777659893036,1.2404311895370483,1.2404311895370483
379,0.9800000190734863,0.0629798099398613,0.0629798099398613,1e-04,0.40799999237060547,1.2323963642120361,1.2323963642120361
380,0.9800000190734863,0.06338362395763397,0.06338362395763397,1e-04,0.39444443583488464,1.236808180809021,1.236808180809021
381,0.9819999933242798,0.06417068839073181,0.06417068839073181,1e-04,0.41999998688697815,1.2215105295181274,1.2215105295181274
382,0.9800000190734863,0.06425933539867401,0.06425933539867401,1e-04,0.4015555679798126,1.2267274856567383,1.2267274856567383
383,0.9819999933242798,0.06292162835597992,0.06292162835597992,1e-04,0.4166666567325592,1.2190639972686768,1.2190639972686768
384,0.984000027179718,0.062143489718437195,0.062143489718437195,1e-04,0.4259999990463257,1.2097948789596558,1.2097948789596558
385,0.9800000190734863,0.06238841637969017,0.06238841637969017,1e-04,0.40711110830307007,1.214140772819519,1.214140772819519
386,0.9819999933242798,0.06292149424552917,0.06292149424552917,1e-04,0.4339999854564667,1.2033439874649048,1.2033439874649048
387,0.9819999933242798,0.06242969632148743,0.06242969632148743,1e-04,0.41600000858306885,1.2060315608978271,1.2060315608978271
388,0.984000027179718,0.06148805841803551,0.06148805841803551,1e-04,0.4262222349643707,1.1979553699493408,1.1979553699493408
389,0.9819999933242798,0.06097282096743584,0.06097282096743584,1e-04,0.43844443559646606,1.1912720203399658,1.1912720203399658
390,0.9819999933242798,0.06113561987876892,0.06113561987876892,1e-04,0.4184444546699524,1.1932806968688965,1.1932806968688965
391,0.9819999933242798,0.06147517263889313,0.06147517263889313,1e-04,0.4435555636882782,1.1804689168930054,1.1804689168930054
392,0.9800000190734863,0.061324894428253174,0.061324894428253174,1e-04,0.4268888831138611,1.1849285364151,1.1849285364151
393,0.984000027179718,0.0608333982527256,0.0608333982527256,1e-04,0.44422221183776855,1.1746785640716553,1.1746785640716553
394,0.9819999933242798,0.06023506075143814,0.06023506075143814,1e-04,0.4444444477558136,1.1723989248275757,1.1723989248275757
395,0.984000027179718,0.05975576117634773,0.05975576117634773,1e-04,0.44155555963516235,1.169427752494812,1.169427752494812
396,0.984000027179718,0.059721119701862335,0.059721119701862335,1e-04,0.457111120223999,1.1597219705581665,1.1597219705581665
397,0.9819999933242798,0.05986753851175308,0.05986753851175308,1e-04,0.4386666715145111,1.1636546850204468,1.1636546850204468
398,0.984000027179718,0.05993913859128952,0.05993913859128952,1e-04,0.4677777886390686,1.149877905845642,1.149877905845642
399,0.9819999933242798,0.059924181550741196,0.059924181550741196,1e-04,0.44244444370269775,1.153784990310669,1.153784990310669
400,0.984000027179718,0.059536319226026535,0.059536319226026535,1e-04,0.4695555567741394,1.1434458494186401,1.1434458494186401
401,0.984000027179718,0.05896701663732529,0.05896701663732529,1e-04,0.4546666741371155,1.1438813209533691,1.1438813209533691
402,0.984000027179718,0.05843278765678406,0.05843278765678406,1e-04,0.45444443821907043,1.1403710842132568,1.1403710842132568
403,0.984000027179718,0.05825287848711014,0.05825287848711014,1e-04,0.46977776288986206,1.1329611539840698,1.1329611539840698
404,0.984000027179718,0.058219436556100845,0.058219436556100845,1e-04,0.44688889384269714,1.1349443197250366,1.1349443197250366
405,0.984000027179718,0.058331940323114395,0.058331940323114395,1e-04,0.4797777831554413,1.120468020439148,1.120468020439148
406,0.9819999933242798,0.05857691541314125,0.05857691541314125,1e-04,0.445333331823349,1.1293087005615234,1.1293087005615234
407,0.9860000014305115,0.05849526450037956,0.05849526450037956,1e-04,0.4811111092567444,1.1152499914169312,1.1152499914169312
408,0.9819999933242798,0.05804392695426941,0.05804392695426941,1e-04,0.4546666741371155,1.120246410369873,1.120246410369873
409,0.9860000014305115,0.057384707033634186,0.057384707033634186,1e-04,0.4735555648803711,1.110916018486023,1.110916018486023
410,0.984000027179718,0.05690385401248932,0.05690385401248932,1e-04,0.4748888909816742,1.1070584058761597,1.1070584058761597
411,0.984000027179718,0.05668807402253151,0.05668807402253151,1e-04,0.46266666054725647,1.1062167882919312,1.1062167882919312
412,0.9860000014305115,0.05669400840997696,0.05669400840997696,1e-04,0.4946666657924652,1.0919572114944458,1.0919572114944458
413,0.9819999933242798,0.057098887860774994,0.057098887860774994,1e-04,0.4533333480358124,1.1029897928237915,1.1029897928237915
414,0.9860000014305115,0.05738973990082741,0.05738973990082741,1e-04,0.5080000162124634,1.0838122367858887,1.0838122367858887
415,0.9819999933242798,0.0572570264339447,0.0572570264339447,1e-04,0.46533334255218506,1.0951000452041626,1.0951000452041626
416,0.9860000014305115,0.056624043732881546,0.056624043732881546,1e-04,0.492000013589859,1.0816744565963745,1.0816744565963745
417,0.984000027179718,0.055738478899002075,0.055738478899002075,1e-04,0.492000013589859,1.0773169994354248,1.0773169994354248
418,0.984000027179718,0.0553940050303936,0.0553940050303936,1e-04,0.4731111228466034,1.078481912612915,1.078481912612915
419,0.9860000014305115,0.055708739906549454,0.055708739906549454,1e-04,0.5184444189071655,1.0615967512130737,1.0615967512130737
420,0.9819999933242798,0.05630522593855858,0.05630522593855858,1e-04,0.457111120223999,1.0828155279159546,1.0828155279159546
421,0.9860000014305115,0.0566214881837368,0.0566214881837368,1e-04,0.5144444704055786,1.0593496561050415,1.0593496561050415
422,0.984000027179718,0.05567315220832825,0.05567315220832825,1e-04,0.49711111187934875,1.0611306428909302,1.0611306428909302
423,0.9860000014305115,0.0546027310192585,0.0546027310192585,1e-04,0.49222221970558167,1.0574008226394653,1.0574008226394653
424,0.9860000014305115,0.054411474615335464,0.054411474615335464,1e-04,0.511555552482605,1.0464460849761963,1.0464460849761963
425,0.9819999933242798,0.05487947538495064,0.05487947538495064,1e-04,0.4655555486679077,1.0626139640808105,1.0626139640808105
426,0.9860000014305115,0.05527037754654884,0.05527037754654884,1e-04,0.5335555672645569,1.0348033905029297,1.0348033905029297
427,0.9819999933242798,0.05476222559809685,0.05476222559809685,1e-04,0.4995555579662323,1.0434582233428955,1.0434582233428955
428,0.9860000014305115,0.053923461586236954,0.053923461586236954,1e-04,0.5168889164924622,1.0362170934677124,1.0362170934677124
429,0.9860000014305115,0.053387030959129333,0.053387030959129333,1e-04,0.5255555510520935,1.0302828550338745,1.0302828550338745
430,0.984000027179718,0.0533737950026989,0.0533737950026989,1e-04,0.49799999594688416,1.03671133518219,1.03671133518219
431,0.9860000014305115,0.05363030731678009,0.05363030731678009,1e-04,0.5524444580078125,1.0137780904769897,1.0137780904769897
432,0.9819999933242798,0.05378470942378044,0.05378470942378044,1e-04,0.49488890171051025,1.029343605041504,1.029343605041504
433,0.9860000014305115,0.053785424679517746,0.053785424679517746,1e-04,0.5671111345291138,1.0027027130126953,1.0027027130126953
434,0.984000027179718,0.05304361879825592,0.05304361879825592,1e-04,0.5402222275733948,1.009842872619629,1.009842872619629
435,0.9860000014305115,0.052390679717063904,0.052390679717063904,1e-04,0.5433333516120911,1.0071556568145752,1.0071556568145752
436,0.9860000014305115,0.05207925662398338,0.05207925662398338,1e-04,0.5655555725097656,0.9969161152839661,0.9969161152839661
437,0.984000027179718,0.0522395558655262,0.0522395558655262,1e-04,0.5204444527626038,1.009661078453064,1.009661078453064
438,0.9860000014305115,0.05263031646609306,0.05263031646609306,1e-04,0.5902222394943237,0.9821966290473938,0.9821966290473938
439,0.984000027179718,0.052502721548080444,0.052502721548080444,1e-04,0.5377777814865112,0.9949811100959778,0.9949811100959778
440,0.9879999756813049,0.052159544080495834,0.052159544080495834,1e-04,0.6068888902664185,0.9697943925857544,0.9697943925857544
441,0.9860000014305115,0.051574211567640305,0.051574211567640305,1e-04,0.5735555291175842,0.9771811962127686,0.9771811962127686
442,0.9860000014305115,0.051063355058431625,0.051063355058431625,1e-04,0.5746666789054871,0.974938154220581,0.974938154220581
443,0.9860000014305115,0.050798170268535614,0.050798170268535614,1e-04,0.601111114025116,0.9641896486282349,0.9641896486282349
444,0.9860000014305115,0.050783973187208176,0.050783973187208176,1e-04,0.5691111087799072,0.9691274166107178,0.9691274166107178
445,0.9900000095367432,0.05086837336421013,0.05086837336421013,1e-04,0.6411111354827881,0.9450328946113586,0.9450328946113586
446,0.984000027179718,0.0508548840880394,0.0508548840880394,1e-04,0.5855555534362793,0.9577123522758484,0.9577123522758484
447,0.9879999756813049,0.050847556442022324,0.050847556442022324,1e-04,0.6706666946411133,0.9329717755317688,0.9329717755317688
448,0.9860000014305115,0.05049979314208031,0.05049979314208031,1e-04,0.6344444155693054,0.940518319606781,0.940518319606781
449,0.9900000095367432,0.05008931830525398,0.05008931830525398,1e-04,0.660444438457489,0.9296581745147705,0.9296581745147705
450,0.9879999756813049,0.04962536692619324,0.04962536692619324,1e-04,0.6579999923706055,0.9253355264663696,0.9253355264663696
451,0.9879999756813049,0.04942556098103523,0.04942556098103523,1e-04,0.6615555286407471,0.921065628528595,0.921065628528595
452,0.9900000095367432,0.04937516152858734,0.04937516152858734,1e-04,0.7195555567741394,0.9050281047821045,0.9050281047821045
453,0.9879999756813049,0.04944543167948723,0.04944543167948723,1e-04,0.6548888683319092,0.9188922643661499,0.9188922643661499
454,0.9900000095367432,0.049761224538087845,0.049761224538087845,1e-04,0.7484444379806519,0.8908559083938599,0.8908559083938599
455,0.9860000014305115,0.049843158572912216,0.049843158572912216,1e-04,0.6753333210945129,0.9074044227600098,0.9074044227600098
456,0.9900000095367432,0.04981159791350365,0.04981159791350365,1e-04,0.7559999823570251,0.8823493123054504,0.8823493123054504
457,0.9860000014305115,0.04953257367014885,0.04953257367014885,1e-04,0.7002221941947937,0.8946407437324524,0.8946407437324524
458,0.9900000095367432,0.0488906167447567,0.0488906167447567,1e-04,0.7657777667045593,0.8697174191474915,0.8697174191474915
459,0.9879999756813049,0.048275649547576904,0.048275649547576904,1e-04,0.7611111402511597,0.8681030869483948,0.8681030869483948
460,0.9900000095367432,0.04794561490416527,0.04794561490416527,1e-04,0.7624444365501404,0.8669093251228333,0.8669093251228333
461,0.9919999837875366,0.04780932515859604,0.04780932515859604,1e-04,0.7784444689750671,0.8581911325454712,0.8581911325454712
462,0.9900000095367432,0.047872625291347504,0.047872625291347504,1e-04,0.761555552482605,0.8606111407279968,0.8606111407279968
463,0.9919999837875366,0.04798422381281853,0.04798422381281853,1e-04,0.7937777638435364,0.8420612812042236,0.8420612812042236
464,0.9879999756813049,0.048016857355833054,0.048016857355833054,1e-04,0.7522222399711609,0.8538531064987183,0.8538531064987183
465,0.9919999837875366,0.04791988804936409,0.04791988804936409,1e-04,0.8084444403648376,0.826127290725708,0.826127290725708
466,0.9900000095367432,0.047866396605968475,0.047866396605968475,1e-04,0.762666642665863,0.8424814939498901,0.8424814939498901
467,0.9919999837875366,0.04769047349691391,0.04769047349691391,1e-04,0.809333324432373,0.8201343417167664,0.8201343417167664
468,0.9919999837875366,0.04734969511628151,0.04734969511628151,1e-04,0.777999997138977,0.8309094905853271,0.8309094905853271
469,0.9919999837875366,0.04681885614991188,0.04681885614991188,1e-04,0.8124444484710693,0.8109274506568909,0.8109274506568909
470,0.9919999837875366,0.046369899064302444,0.046369899064302444,1e-04,0.8100000023841858,0.8085441589355469,0.8085441589355469
471,0.9919999837875366,0.04609295353293419,0.04609295353293419,1e-04,0.8033333420753479,0.807921290397644,0.807921290397644
472,0.9919999837875366,0.0460149385035038,0.0460149385035038,1e-04,0.8253333568572998,0.7923868298530579,0.7923868298530579
473,0.9919999837875366,0.0460570827126503,0.0460570827126503,1e-04,0.8053333163261414,0.7989217638969421,0.7989217638969421
474,0.9919999837875366,0.046201933175325394,0.046201933175325394,1e-04,0.8424444198608398,0.7765815854072571,0.7765815854072571
475,0.9900000095367432,0.046354033052921295,0.046354033052921295,1e-04,0.7986666560173035,0.798165500164032,0.798165500164032
476,0.9919999837875366,0.046683747321367264,0.046683747321367264,1e-04,0.8442222476005554,0.7699543237686157,0.7699543237686157
477,0.9879999756813049,0.046656008809804916,0.046656008809804916,1e-04,0.8228889107704163,0.7801555395126343,0.7801555395126343
478,0.9919999837875366,0.04603723809123039,0.04603723809123039,1e-04,0.8531110882759094,0.7570431232452393,0.7570431232452393
479,0.9919999837875366,0.0451531745493412,0.0451531745493412,1e-04,0.8448888659477234,0.7559674978256226,0.7559674978256226
480,0.9919999837875366,0.044704414904117584,0.044704414904117584,1e-04,0.8408889174461365,0.7547081112861633,0.7547081112861633
481,0.9919999837875366,0.04467620700597763,0.04467620700597763,1e-04,0.8557778000831604,0.7423308491706848,0.7423308491706848
482,0.9900000095367432,0.044975172728300095,0.044975172728300095,1e-04,0.8302222490310669,0.756725013256073,0.756725013256073
483,0.9940000176429749,0.04523637890815735,0.04523637890815735,1e-04,0.8640000224113464,0.7313322424888611,0.7313322424888611
484,0.9900000095367432,0.04528509080410004,0.04528509080410004,1e-04,0.8384444713592529,0.7459091544151306,0.7459091544151306
485,0.9919999837875366,0.045088402926921844,0.045088402926921844,1e-04,0.8691111207008362,0.7174075245857239,0.7174075245857239
486,0.9919999837875366,0.04435551539063454,0.04435551539063454,1e-04,0.8553333282470703,0.7235453128814697,0.7235453128814697
487,0.9919999837875366,0.043817076832056046,0.043817076832056046,1e-04,0.8595555424690247,0.7158380150794983,0.7158380150794983
488,0.9940000176429749,0.04376235231757164,0.04376235231757164,1e-04,0.870888888835907,0.7005342245101929,0.7005342245101929
489,0.9919999837875366,0.0439077727496624,0.0439077727496624,1e-04,0.8488888740539551,0.7201494574546814,0.7201494574546814
490,0.9940000176429749,0.044274602085351944,0.044274602085351944,1e-04,0.8795555830001831,0.692795991897583,0.692795991897583
491,0.9919999837875366,0.04452640935778618,0.04452640935778618,1e-04,0.8584444522857666,0.7070857286453247,0.7070857286453247
492,0.9919999837875366,0.04387956112623215,0.04387956112623215,1e-04,0.8820000290870667,0.6822929978370667,0.6822929978370667
493,0.9919999837875366,0.043023962527513504,0.043023962527513504,1e-04,0.8762221932411194,0.6828345060348511,0.6828345060348511
494,0.9919999837875366,0.04263252019882202,0.04263252019882202,1e-04,0.8606666922569275,0.692714512348175,0.692714512348175
495,0.9919999837875366,0.043186794966459274,0.043186794966459274,1e-04,0.8875555396080017,0.657677948474884,0.657677948474884
496,0.9919999837875366,0.04387950897216797,0.04387950897216797,1e-04,0.8648889064788818,0.6819527745246887,0.6819527745246887
497,0.9940000176429749,0.04402196779847145,0.04402196779847145,1e-04,0.8895555734634399,0.6550547480583191,0.6550547480583191
498,0.9919999837875366,0.043103158473968506,0.043103158473968506,1e-04,0.8842222094535828,0.65874183177948,0.65874183177948
499,0.9940000176429749,0.04222111031413078,0.04222111031413078,1e-04,0.8813333511352539,0.6578417420387268,0.6578417420387268
500,0.9919999837875366,0.042283620685338974,0.042283620685338974,1e-04,0.8953333497047424,0.6294752359390259,0.6294752359390259
501,0.9919999837875366,0.04267424717545509,0.04267424717545509,1e-04,0.8782222270965576,0.6470047831535339,0.6470047831535339
502,0.9940000176429749,0.042849935591220856,0.042849935591220856,1e-04,0.8939999938011169,0.6228951811790466,0.6228951811790466
503,0.9900000095367432,0.042550522834062576,0.042550522834062576,1e-04,0.8897777795791626,0.6316680312156677,0.6316680312156677
504,0.9940000176429749,0.04168730974197388,0.04168730974197388,1e-04,0.8908888697624207,0.629190981388092,0.629190981388092
505,0.9919999837875366,0.041289135813713074,0.041289135813713074,1e-04,0.8982222080230713,0.6113579869270325,0.6113579869270325
506,0.9919999837875366,0.04130072891712189,0.04130072891712189,1e-04,0.8897777795791626,0.6173329949378967,0.6173329949378967
507,0.9940000176429749,0.041497692465782166,0.041497692465782166,1e-04,0.8975555300712585,0.6019966006278992,0.6019966006278992
508,0.9919999837875366,0.041403524577617645,0.041403524577617645,1e-04,0.8928889036178589,0.6069937944412231,0.6069937944412231
509,0.9940000176429749,0.04067765921354294,0.04067765921354294,1e-04,0.8964444398880005,0.600677490234375,0.600677490234375
510,0.9940000176429749,0.040332816541194916,0.040332816541194916,1e-04,0.8995555639266968,0.5942920446395874,0.5942920446395874
511,0.9919999837875366,0.04039622098207474,0.04039622098207474,1e-04,0.8948888778686523,0.596938967704773,0.596938967704773
512,0.9940000176429749,0.04048510640859604,0.04048510640859604,1e-04,0.9028888940811157,0.5792250037193298,0.5792250037193298
513,0.9919999837875366,0.04052908718585968,0.04052908718585968,1e-04,0.8915555477142334,0.5964013934135437,0.5964013934135437
514,0.9940000176429749,0.04042147845029831,0.04042147845029831,1e-04,0.9002222418785095,0.5760348439216614,0.5760348439216614
515,0.9940000176429749,0.04007987305521965,0.04007987305521965,1e-04,0.894444465637207,0.5831786394119263,0.5831786394119263
516,0.9940000176429749,0.039666932076215744,0.039666932076215744,1e-04,0.897777795791626,0.573283314704895,0.5732833743095398
517,0.9940000176429749,0.039368078112602234,0.039368078112602234,1e-04,0.8991110920906067,0.5673450827598572,0.5673450827598572
518,0.9940000176429749,0.03939393535256386,0.03939393535256386,1e-04,0.8933333158493042,0.5816126465797424,0.5816126465797424
519,0.9940000176429749,0.03954561799764633,0.03954561799764633,1e-04,0.9011111259460449,0.5567025542259216,0.5567025542259216
520,0.9940000176429749,0.03963394835591316,0.03963394835591316,1e-04,0.8935555815696716,0.5727539658546448,0.5727539658546448
521,0.9940000176429749,0.039693158119916916,0.039693158119916916,1e-04,0.9044444561004639,0.5422942638397217,0.5422942638397217
522,0.9919999837875366,0.03943835198879242,0.03943835198879242,1e-04,0.8957777619361877,0.561643660068512,0.561643660068512
523,0.9940000176429749,0.03930653631687164,0.03930653631687164,1e-04,0.9008888602256775,0.548331081867218,0.548331081867218
524,0.9919999837875366,0.03901547193527222,0.03901547193527222,1e-04,0.8993333578109741,0.5477955341339111,0.5477955341339111
525,0.9940000176429749,0.03863991051912308,0.03863991051912308,1e-04,0.903333306312561,0.533994734287262,0.533994734287262
526,0.9940000176429749,0.03833163529634476,0.03833163529634476,1e-04,0.9062222242355347,0.5234022736549377,0.5234022736549377
527,0.9940000176429749,0.038102537393569946,0.038102537393569946,1e-04,0.9031111001968384,0.5278621315956116,0.5278621315956116
528,0.9940000176429749,0.038241077214479446,0.038241077214479446,1e-04,0.909333348274231,0.5109188556671143,0.5109188556671143
529,0.9940000176429749,0.03851207345724106,0.03851207345724106,1e-04,0.9020000100135803,0.5304217338562012,0.5304217338562012
530,0.9940000176429749,0.038880955427885056,0.038880955427885056,1e-04,0.910444438457489,0.5038122534751892,0.5038122534751892
531,0.9919999837875366,0.03891932591795921,0.03891932591795921,1e-04,0.9039999842643738,0.5176073312759399,0.5176073312759399
532,0.9940000176429749,0.03857025131583214,0.03857025131583214,1e-04,0.9124444723129272,0.4841710031032562,0.4841710031032562
533,0.9940000176429749,0.037871796637773514,0.037871796637773514,1e-04,0.9111111164093018,0.49130409955978394,0.49130409955978394
534,0.9940000176429749,0.037297818809747696,0.037297818809747696,1e-04,0.9111111164093018,0.49124857783317566,0.49124857783317566
535,0.9940000176429749,0.037167083472013474,0.037167083472013474,1e-04,0.9115555286407471,0.48259636759757996,0.48259636759757996
536,0.9940000176429749,0.03744123503565788,0.03744123503565788,1e-04,0.9079999923706055,0.493649423122406,0.493649423122406
537,0.9959999918937683,0.037769485265016556,0.037769485265016556,1e-04,0.9139999747276306,0.46489909291267395,0.46489909291267395
538,0.9940000176429749,0.03801044821739197,0.03801044821739197,1e-04,0.9091110825538635,0.48399993777275085,0.48399993777275085
539,0.9959999918937683,0.03781738132238388,0.03781738132238388,1e-04,0.914222240447998,0.46032366156578064,0.46032366156578064
540,0.9959999918937683,0.03689827769994736,0.03689827769994736,1e-04,0.913777768611908,0.46257227659225464,0.46257227659225464
541,0.9959999918937683,0.03638725355267525,0.03638725355267525,1e-04,0.9120000004768372,0.4683842658996582,0.4683842658996582
542,0.9959999918937683,0.036476150155067444,0.036476150155067444,1e-04,0.9146666526794434,0.44954997301101685,0.44954997301101685
543,0.9959999918937683,0.037003133445978165,0.037003133445978165,1e-04,0.909333348274231,0.4705485701560974,0.4705485701560974
544,0.9959999918937683,0.03739175572991371,0.03739175572991371,1e-04,0.9155555367469788,0.4426993131637573,0.4426993131637573
545,0.9940000176429749,0.03707054629921913,0.03707054629921913,1e-04,0.9133333563804626,0.4526834189891815,0.4526834189891815
546,0.9980000257492065,0.03661122918128967,0.03661122918128967,1e-04,0.9155555367469788,0.4471918046474457,0.4471918046474457
547,0.9959999918937683,0.035965826362371445,0.035965826362371445,1e-04,0.9157778024673462,0.44102007150650024,0.44102007150650024
548,0.9980000257492065,0.03578165918588638,0.03578165918588638,1e-04,0.9126666784286499,0.4493248760700226,0.4493248760700226
549,0.9959999918937683,0.03604394569993019,0.03604394569993019,1e-04,0.9171110987663269,0.42640453577041626,0.42640453577041626
550,0.9959999918937683,0.036349132657051086,0.036349132657051086,1e-04,0.9135555624961853,0.4461870789527893,0.4461870789527893
551,0.9980000257492065,0.03655356913805008,0.03655356913805008,1e-04,0.9166666865348816,0.4318583607673645,0.4318583607673645
552,0.9940000176429749,0.036090731620788574,0.036090731620788574,1e-04,0.9148889183998108,0.4366133213043213,0.4366133213043213
553,0.9980000257492065,0.03518268093466759,0.03518268093466759,1e-04,0.9153333306312561,0.43278032541275024,0.43278032541275024
554,0.9980000257492065,0.0349050909280777,0.0349050909280777,1e-04,0.9171110987663269,0.41978269815444946,0.41978269815444946
555,0.9959999918937683,0.03541044890880585,0.03541044890880585,1e-04,0.9146666526794434,0.4292641878128052,0.4292641878128052
556,0.9980000257492065,0.035915616899728775,0.035915616899728775,1e-04,0.9184444546699524,0.4086579382419586,0.4086579382419586
557,0.9959999918937683,0.03550334647297859,0.03550334647297859,1e-04,0.9162222146987915,0.4259936213493347,0.4259936213493347
558,0.9980000257492065,0.034921795129776,0.034921795129776,1e-04,0.9179999828338623,0.4139101207256317,0.4139101207256317
559,0.9980000257492065,0.03457506746053696,0.03457506746053696,1e-04,0.917555570602417,0.41578853130340576,0.41578853130340576
560,0.9959999918937683,0.0345718190073967,0.0345718190073967,1e-04,0.9168888926506042,0.41482242941856384,0.41482242941856384
561,0.9980000257492065,0.03464223071932793,0.03464223071932793,1e-04,0.9193333387374878,0.3965258002281189,0.3965258002281189
562,0.9959999918937683,0.03473243489861488,0.03473243489861488,1e-04,0.9168888926506042,0.41234472393989563,0.41234472393989563
563,0.9959999918937683,0.03485308960080147,0.03485308960080147,1e-04,0.9208889007568359,0.39153924584388733,0.39153924584388733
564,0.9980000257492065,0.034545280039310455,0.034545280039310455,1e-04,0.9173333048820496,0.4100307822227478,0.4100307822227478
565,0.9959999918937683,0.033913105726242065,0.033913105726242065,1e-04,0.9184444546699524,0.4027406573295593,0.4027406573295593
566,0.9980000257492065,0.033492062240839005,0.033492062240839005,1e-04,0.9213333129882812,0.38990652561187744,0.38990652561187744
567,0.9980000257492065,0.03374708071351051,0.03374708071351051,1e-04,0.9173333048820496,0.40216660499572754,0.40216660499572754
568,0.9959999918937683,0.03403324633836746,0.03403324633836746,1e-04,0.9213333129882812,0.3793167471885681,0.3793167471885681
569,0.9980000257492065,0.033895622938871384,0.033895622938871384,1e-04,0.918666660785675,0.39328432083129883,0.39328432083129883
570,0.9980000257492065,0.03358730301260948,0.03358730301260948,1e-04,0.9208889007568359,0.387776643037796,0.387776643037796
571,0.9980000257492065,0.03331069275736809,0.03331069275736809,1e-04,0.9193333387374878,0.39012962579727173,0.39012962579727173
572,1.0,0.03311312198638916,0.03311312198638916,1e-04,0.9179999828338623,0.3959501087665558,0.3959501087665558
573,0.9980000257492065,0.03285690024495125,0.03285690024495125,1e-04,0.9202222228050232,0.380647212266922,0.380647212266922
574,0.9980000257492065,0.03277067467570305,0.03277067467570305,1e-04,0.9200000166893005,0.381318598985672,0.381318598985672
575,0.9980000257492065,0.03301962465047836,0.03301962465047836,1e-04,0.9228888750076294,0.3740006983280182,0.3740006983280182
576,0.9959999918937683,0.03315369412302971,0.03315369412302971,1e-04,0.9191111326217651,0.38753554224967957,0.38753554224967957
577,0.9980000257492065,0.03303441405296326,0.03303441405296326,1e-04,0.9215555787086487,0.37778645753860474,0.37778645753860474
578,0.9980000257492065,0.03264230489730835,0.03264230489730835,1e-04,0.9195555448532104,0.3778822720050812,0.3778822720050812
579,0.9980000257492065,0.03230469673871994,0.03230469673871994,1e-04,0.9235555529594421,0.36186152696609497,0.36186152696609497
580,1.0,0.032255854457616806,0.032255854457616806,1e-04,0.9208889007568359,0.36952903866767883,0.36952903866767883
581,0.9980000257492065,0.032181572169065475,0.032181572169065475,1e-04,0.9213333129882812,0.3670007884502411,0.3670007884502411
582,0.9980000257492065,0.03194522485136986,0.03194522485136986,1e-04,0.9235555529594421,0.3630291223526001,0.3630291223526001
583,0.9980000257492065,0.03185664489865303,0.03185664489865303,1e-04,0.9202222228050232,0.3734464645385742,0.3734464645385742
584,0.9980000257492065,0.03192080557346344,0.03192080557346344,1e-04,0.925777792930603,0.3574419915676117,0.3574419915676117
585,0.9980000257492065,0.03192029148340225,0.03192029148340225,1e-04,0.9213333129882812,0.3666745722293854,0.3666745722293854
586,0.9980000257492065,0.03169674798846245,0.03169674798846245,1e-04,0.9255555272102356,0.351680189371109,0.351680189371109
587,0.9980000257492065,0.031322021037340164,0.031322021037340164,1e-04,0.925777792930603,0.3530820608139038,0.3530820608139038
588,1.0,0.031212398782372475,0.031212398782372475,1e-04,0.9244444370269775,0.3577847480773926,0.3577847480773926
589,0.9980000257492065,0.03118797577917576,0.03118797577917576,1e-04,0.9264444708824158,0.34932005405426025,0.34932005405426025
590,1.0,0.031069308519363403,0.031069308519363403,1e-04,0.9264444708824158,0.34960266947746277,0.34960266947746277
591,0.9980000257492065,0.03093630075454712,0.03093630075454712,1e-04,0.9266666769981384,0.3470575213432312,0.3470575213432312
592,1.0,0.030748428776860237,0.030748428776860237,1e-04,0.9259999990463257,0.3494442403316498,0.3494442403316498
593,0.9980000257492065,0.030664490535855293,0.030664490535855293,1e-04,0.9251111149787903,0.351092666387558,0.351092666387558
594,0.9980000257492065,0.030598247423768044,0.030598247423768044,1e-04,0.9271110892295837,0.3403160572052002,0.3403160572052002
595,1.0,0.030539516359567642,0.030539516359567642,1e-04,0.9248889088630676,0.34734609723091125,0.34734609723091125
596,0.9980000257492065,0.030468657612800598,0.030468657612800598,1e-04,0.9264444708824158,0.33889269828796387,0.33889269828796387
597,0.9980000257492065,0.030477093532681465,0.030477093532681465,1e-04,0.9251111149787903,0.3472968339920044,0.3472968339920044
598,1.0,0.03070835955440998,0.03070835955440998,1e-04,0.9293333292007446,0.3347363770008087,0.3347363770008087
599,0.9980000257492065,0.03123980015516281,0.03123980015516281,1e-04,0.9251111149787903,0.35040971636772156,0.35040971636772156
600,1.0,0.032168179750442505,0.032168179750442505,1e-04,0.9293333292007446,0.3327624797821045,0.3327624797821045
601,0.9959999918937683,0.03202608600258827,0.03202608600258827,1e-04,0.9251111149787903,0.35068097710609436,0.35068097710609436
602,0.9980000257492065,0.031493134796619415,0.031493134796619415,1e-04,0.9304444193840027,0.32189372181892395,0.32189372181892395
603,1.0,0.030383005738258362,0.030383005738258362,1e-04,0.9264444708824158,0.3320387899875641,0.3320387899875641
604,0.9980000257492065,0.03021680749952793,0.03021680749952793,1e-04,0.925777792930603,0.3380012512207031,0.3380012512207031
605,1.0,0.030503038316965103,0.030503038316965103,1e-04,0.9273333549499512,0.32626381516456604,0.32626381516456604
606,0.9980000257492065,0.030761245638132095,0.030761245638132095,1e-04,0.9242222309112549,0.35430237650871277,0.35430237650871277
607,0.9980000257492065,0.03146977350115776,0.03146977350115776,1e-04,0.9306666851043701,0.31771039962768555,0.31771039962768555
608,1.0,0.030455894768238068,0.030455894768238068,1e-04,0.9264444708824158,0.3328457176685333,0.3328457176685333
609,0.9980000257492065,0.02936827763915062,0.02936827763915062,1e-04,0.9264444708824158,0.3337099254131317,0.3337099254131317
610,1.0,0.029470961540937424,0.029470961540937424,1e-04,0.9308888912200928,0.3128586411476135,0.3128586411476135
611,1.0,0.0301953237503767,0.0301953237503767,1e-04,0.9262222051620483,0.3432336449623108,0.3432336449623108
612,0.9980000257492065,0.030645374208688736,0.030645374208688736,1e-04,0.9293333292007446,0.31928589940071106,0.31928589940071106
613,0.9980000257492065,0.029703523963689804,0.029703523963689804,1e-04,0.9271110892295837,0.3252737522125244,0.3252737522125244
614,1.0,0.029120948165655136,0.029120948165655136,1e-04,0.9277777671813965,0.32612645626068115,0.32612645626068115
615,0.9980000257492065,0.028827358037233353,0.028827358037233353,1e-04,0.9297778010368347,0.31295377016067505,0.31295377016067505
616,1.0,0.02881731279194355,0.02881731279194355,1e-04,0.9286666512489319,0.32398471236228943,0.32398471236228943
617,1.0,0.02905469946563244,0.02905469946563244,1e-04,0.9282222390174866,0.3188249170780182,0.3188249170780182
618,0.9980000257492065,0.029062815010547638,0.029062815010547638,1e-04,0.9282222390174866,0.3238542079925537,0.3238542079925537
619,1.0,0.028820469975471497,0.028820469975471497,1e-04,0.9293333292007446,0.3170723021030426,0.3170723021030426
620,1.0,0.028355728834867477,0.028355728834867477,1e-04,0.9284444451332092,0.32207974791526794,0.32207974791526794
621,1.0,0.028129149228334427,0.028129149228334427,1e-04,0.9275555610656738,0.32430416345596313,0.32430416345596313
622,1.0,0.02817397005856037,0.02817397005856037,1e-04,0.9266666769981384,0.3246155083179474,0.3246155083179474
623,0.9980000257492065,0.02820928953588009,0.02820928953588009,1e-04,0.9271110892295837,0.32987189292907715,0.32987189292907715
624,1.0,0.028212063014507294,0.028212063014507294,1e-04,0.9286666512489319,0.31693804264068604,0.31693804264068604
625,1.0,0.028218436986207962,0.028218436986207962,1e-04,0.9248889088630676,0.34272029995918274,0.34272029995918274
626,1.0,0.028213748708367348,0.028213748708367348,1e-04,0.9268888831138611,0.32212647795677185,0.32212647795677185
627,1.0,0.027872420847415924,0.027872420847415924,1e-04,0.9259999990463257,0.3294108808040619,0.3294108808040619
628,1.0,0.02752542495727539,0.02752542495727539,1e-04,0.9255555272102356,0.3318648934364319,0.3318648934364319
629,1.0,0.027454428374767303,0.027454428374767303,1e-04,0.9262222051620483,0.32544320821762085,0.32544320821762085
630,1.0,0.027564652264118195,0.027564652264118195,1e-04,0.9248889088630676,0.3450663685798645,0.3450663685798645
631,1.0,0.027523590251803398,0.027523590251803398,1e-04,0.9262222051620483,0.32341811060905457,0.32341811060905457
632,1.0,0.027447447180747986,0.027447447180747986,1e-04,0.9259999990463257,0.3329220116138458,0.3329220116138458
633,1.0,0.027636872604489326,0.027636872604489326,1e-04,0.9255555272102356,0.3327295482158661,0.3327295482158661
634,0.9980000257492065,0.02774965576827526,0.02774965576827526,1e-04,0.9253333210945129,0.3419792354106903,0.3419792354106903
635,1.0,0.027629675343632698,0.027629675343632698,1e-04,0.9264444708824158,0.3252362310886383,0.3252362310886383
636,1.0,0.027229756116867065,0.027229756116867065,1e-04,0.9262222051620483,0.34065327048301697,0.34065327048301697
637,1.0,0.02706150710582733,0.02706150710582733,1e-04,0.9266666769981384,0.32363656163215637,0.32363656163215637
638,1.0,0.026969099417328835,0.026969099417328835,1e-04,0.9251111149787903,0.3417554199695587,0.3417554199695587
639,1.0,0.02673226036131382,0.02673226036131382,1e-04,0.9262222051620483,0.3299310803413391,0.3299310803413391
640,1.0,0.026508724316954613,0.026508724316954613,1e-04,0.9275555610656738,0.3222162127494812,0.3222162127494812
641,1.0,0.02652725577354431,0.02652725577354431,1e-04,0.9253333210945129,0.3433094918727875,0.3433094918727875
642,1.0,0.02664324827492237,0.02664324827492237,1e-04,0.9275555610656738,0.31932592391967773,0.31932592391967773
643,1.0,0.026666924357414246,0.026666924357414246,1e-04,0.9271110892295837,0.3326503336429596,0.3326503336429596
644,1.0,0.026600027456879616,0.026600027456879616,1e-04,0.9282222390174866,0.31896501779556274,0.31896501779556274
645,1.0,0.026601223275065422,0.026601223275065422,1e-04,0.9271110892295837,0.33262258768081665,0.33262258768081665
646,1.0,0.026684295386075974,0.026684295386075974,1e-04,0.9262222051620483,0.3297877311706543,0.3297877311706543
647,1.0,0.02649967186152935,0.02649967186152935,1e-04,0.9275555610656738,0.33206528425216675,0.33206528425216675
648,1.0,0.026240097358822823,0.026240097358822823,1e-04,0.9293333292007446,0.31137266755104065,0.31137266755104065
649,1.0,0.02608432061970234,0.02608432061970234,1e-04,0.9268888831138611,0.3325170874595642,0.3325170874595642
650,1.0,0.025995101779699326,0.025995101779699326,1e-04,0.9279999732971191,0.31581318378448486,0.31581318378448486
651,1.0,0.025831032544374466,0.025831032544374466,1e-04,0.9273333549499512,0.3255564272403717,0.3255564272403717
652,1.0,0.025547366589307785,0.025547366589307785,1e-04,0.9275555610656738,0.3259579539299011,0.3259579539299011
653,1.0,0.02549094334244728,0.02549094334244728,1e-04,0.9279999732971191,0.3146093487739563,0.3146093487739563
654,1.0,0.025592045858502388,0.025592045858502388,1e-04,0.9273333549499512,0.3319249749183655,0.3319249749183655
655,1.0,0.025557328015565872,0.025557328015565872,1e-04,0.9304444193840027,0.30620649456977844,0.30620649456977844
656,1.0,0.02553044632077217,0.02553044632077217,1e-04,0.9282222390174866,0.3225196897983551,0.3225196897983551
657,1.0,0.02561194635927677,0.02561194635927677,1e-04,0.9288889169692993,0.3210444450378418,0.3210444450378418
658,1.0,0.0259057879447937,0.0259057879447937,1e-04,0.9273333549499512,0.33324989676475525,0.33324989676475525
659,1.0,0.026239629834890366,0.026239629834890366,1e-04,0.9293333292007446,0.3187808096408844,0.3187808096408844
660,1.0,0.025814834982156754,0.025814834982156754,1e-04,0.9273333549499512,0.3357399106025696,0.3357399106025696
661,1.0,0.025597797706723213,0.025597797706723213,1e-04,0.9308888912200928,0.3036104142665863,0.3036104142665863
662,1.0,0.025432834401726723,0.025432834401726723,1e-04,0.9279999732971191,0.3235374987125397,0.3235374987125397
663,1.0,0.0250137597322464,0.0250137597322464,1e-04,0.9284444451332092,0.3185465633869171,0.3185465633869171
664,1.0,0.02479451335966587,0.02479451335966587,1e-04,0.9308888912200928,0.3079918622970581,0.3079918622970581
665,1.0,0.025125740095973015,0.025125740095973015,1e-04,0.9266666769981384,0.3374301791191101,0.3374301791191101
666,1.0,0.02568921074271202,0.02568921074271202,1e-04,0.9328888654708862,0.30125850439071655,0.30125850439071655
667,1.0,0.025523168966174126,0.025523168966174126,1e-04,0.9297778010368347,0.31899744272232056,0.31899744272232056
668,1.0,0.025227708742022514,0.025227708742022514,1e-04,0.9326666593551636,0.3069022297859192,0.3069022297859192
669,1.0,0.02477560192346573,0.02477560192346573,1e-04,0.9326666593551636,0.30077865719795227,0.30077865719795227
670,1.0,0.02456054277718067,0.02456054277718067,1e-04,0.9288889169692993,0.3216063976287842,0.3216063976287842
671,1.0,0.024487605318427086,0.024487605318427086,1e-04,0.9326666593551636,0.3023880124092102,0.3023880124092102
672,1.0,0.02464142255485058,0.02464142255485058,1e-04,0.9313333630561829,0.30972108244895935,0.30972108244895935
673,1.0,0.025142155587673187,0.025142155587673187,1e-04,0.9337777495384216,0.2993861734867096,0.2993861734867096
674,1.0,0.02496657334268093,0.02496657334268093,1e-04,0.9319999814033508,0.30355653166770935,0.30355653166770935
675,1.0,0.024262163788080215,0.024262163788080215,1e-04,0.9346666932106018,0.29535695910453796,0.29535695910453796
676,1.0,0.023884590715169907,0.023884590715169907,1e-04,0.9344444274902344,0.2969973683357239,0.2969973683357239
677,1.0,0.024260586127638817,0.024260586127638817,1e-04,0.9319999814033508,0.30906298756599426,0.30906298756599426
678,1.0,0.024533871561288834,0.024533871561288834,1e-04,0.9351111054420471,0.2896980941295624,0.2896980941295624
679,1.0,0.024227742105722427,0.024227742105722427,1e-04,0.9342222213745117,0.30187010765075684,0.30187010765075684
680,1.0,0.024043284356594086,0.024043284356594086,1e-04,0.9364444613456726,0.2784062623977661,0.2784062623977661
681,1.0,0.023794662207365036,0.023794662207365036,1e-04,0.9357777833938599,0.2907145321369171,0.2907145321369171
682,1.0,0.023482339456677437,0.023482339456677437,1e-04,0.9342222213745117,0.29941749572753906,0.29941749572753906
683,1.0,0.023575130850076675,0.023575130850076675,1e-04,0.9364444613456726,0.27748382091522217,0.27748382091522217
684,1.0,0.02385002188384533,0.02385002188384533,1e-04,0.9344444274902344,0.29399001598358154,0.29399001598358154
685,1.0,0.023772303014993668,0.023772303014993668,1e-04,0.9364444613456726,0.2780541777610779,0.2780541777610779
686,1.0,0.023464161902666092,0.023464161902666092,1e-04,0.9348888993263245,0.2839109003543854,0.2839109003543854
687,1.0,0.023325400426983833,0.023325400426983833,1e-04,0.9362221956253052,0.2848557233810425,0.2848557233810425
688,1.0,0.023200778290629387,0.023200778290629387,1e-04,0.9359999895095825,0.27946192026138306,0.27946192026138306
689,1.0,0.02297869510948658,0.02297869510948658,1e-04,0.9353333115577698,0.2867509722709656,0.2867509722709656
690,1.0,0.022921374067664146,0.022921374067664146,1e-04,0.9364444613456726,0.28236544132232666,0.28236544132232666
691,1.0,0.022971587255597115,0.022971587255597115,1e-04,0.9351111054420471,0.2799662947654724,0.2799662947654724
692,1.0,0.02304115891456604,0.02304115891456604,1e-04,0.9386666417121887,0.27239954471588135,0.27239954471588135
693,1.0,0.023025764152407646,0.023025764152407646,1e-04,0.9351111054420471,0.28308695554733276,0.28308695554733276
694,1.0,0.022926030680537224,0.022926030680537224,1e-04,0.9375555515289307,0.27118390798568726,0.27118390798568726
695,1.0,0.02278565801680088,0.02278565801680088,1e-04,0.9359999895095825,0.28052976727485657,0.28052976727485657
696,1.0,0.022652877494692802,0.022652877494692802,1e-04,0.9377777576446533,0.26953229308128357,0.26953229308128357
697,1.0,0.02246141992509365,0.02246141992509365,1e-04,0.937333345413208,0.2721700966358185,0.2721700966358185
698,1.0,0.022353893145918846,0.022353893145918846,1e-04,0.9395555257797241,0.26789766550064087,0.26789766550064087
699,1.0,0.022287586703896523,0.022287586703896523,1e-04,0.9386666417121887,0.26734599471092224,0.26734599471092224
700,1.0,0.022195545956492424,0.022195545956492424,1e-04,0.9364444613456726,0.2734251618385315,0.2734251618385315
701,1.0,0.022175844758749008,0.022175844758749008,1e-04,0.9382222294807434,0.26792871952056885,0.26792871952056885
702,1.0,0.0221039280295372,0.0221039280295372,1e-04,0.9375555515289307,0.2699660360813141,0.2699660360813141
703,1.0,0.022068966180086136,0.022068966180086136,1e-04,0.9399999976158142,0.26312685012817383,0.26312685012817383
704,1.0,0.022089175879955292,0.022089175879955292,1e-04,0.9368888735771179,0.2705965042114258,0.2705965042114258
705,1.0,0.02219255268573761,0.02219255268573761,1e-04,0.9404444694519043,0.2629970610141754,0.2629970610141754
706,1.0,0.022410724312067032,0.022410724312067032,1e-04,0.9364444613456726,0.2695651650428772,0.2695651650428772
707,1.0,0.022646669298410416,0.022646669298410416,1e-04,0.9413333535194397,0.25526630878448486,0.25526630878448486
708,1.0,0.02240891568362713,0.02240891568362713,1e-04,0.9375555515289307,0.2664978504180908,0.2664978504180908
709,1.0,0.02231747843325138,0.02231747843325138,1e-04,0.941777765750885,0.25383782386779785,0.25383782386779785
710,1.0,0.02186392992734909,0.02186392992734909,1e-04,0.9399999976158142,0.25917690992355347,0.25917690992355347
711,1.0,0.021600397303700447,0.021600397303700447,1e-04,0.9404444694519043,0.2549164891242981,0.2549164891242981
712,1.0,0.02149639092385769,0.02149639092385769,1e-04,0.941777765750885,0.2523896396160126,0.2523896396160126
713,1.0,0.021499553695321083,0.021499553695321083,1e-04,0.9411110877990723,0.2570294141769409,0.2570294141769409
714,1.0,0.021729782223701477,0.021729782223701477,1e-04,0.9415555596351624,0.2459077686071396,0.2459077686071396
715,1.0,0.021912485361099243,0.021912485361099243,1e-04,0.9404444694519043,0.2534818947315216,0.2534818947315216
716,1.0,0.022050147876143456,0.022050147876143456,1e-04,0.941777765750885,0.24605436623096466,0.24605436623096466
717,1.0,0.021764736622571945,0.021764736622571945,1e-04,0.9408888816833496,0.2489343285560608,0.2489343285560608
718,1.0,0.021493934094905853,0.021493934094905853,1e-04,0.941777765750885,0.24547292292118073,0.24547292292118073
719,1.0,0.02117157354950905,0.02117157354950905,1e-04,0.941777765750885,0.24588818848133087,0.24588818848133087
720,1.0,0.020998531952500343,0.020998531952500343,1e-04,0.941777765750885,0.24602419137954712,0.24602419137954712
721,1.0,0.020986273884773254,0.020986273884773254,1e-04,0.941777765750885,0.24482718110084534,0.24482718110084534
722,1.0,0.021101363003253937,0.021101363003253937,1e-04,0.941777765750885,0.246126189827919,0.246126189827919
723,1.0,0.021163443103432655,0.021163443103432655,1e-04,0.941777765750885,0.2446506917476654,0.2446506917476654
724,1.0,0.021161379292607307,0.021161379292607307,1e-04,0.941777765750885,0.2466738224029541,0.2466738224029541
725,1.0,0.021161269396543503,0.021161269396543503,1e-04,0.9413333535194397,0.24507112801074982,0.24507112801074982
726,1.0,0.02093038149178028,0.02093038149178028,1e-04,0.9419999718666077,0.24557723104953766,0.24557723104953766
727,1.0,0.020785648375749588,0.020785648375749588,1e-04,0.9411110877990723,0.24536539614200592,0.24536539614200592
728,1.0,0.02062016725540161,0.02062016725540161,1e-04,0.9419999718666077,0.24519848823547363,0.24519848823547363
729,1.0,0.02048633247613907,0.02048633247613907,1e-04,0.9413333535194397,0.24522821605205536,0.24522821605205536
730,1.0,0.020428920164704323,0.020428920164704323,1e-04,0.9404444694519043,0.24616770446300507,0.24616770446300507
731,1.0,0.02045866847038269,0.02045866847038269,1e-04,0.9415555596351624,0.2454429566860199,0.2454429566860199
732,1.0,0.020557338371872902,0.020557338371872902,1e-04,0.9399999976158142,0.24675770103931427,0.24675770103931427
733,1.0,0.02061830647289753,0.02061830647289753,1e-04,0.9413333535194397,0.2457835078239441,0.2457835078239441
734,1.0,0.02075427770614624,0.02075427770614624,1e-04,0.9391111135482788,0.24769656360149384,0.24769656360149384
735,1.0,0.020700212568044662,0.020700212568044662,1e-04,0.9408888816833496,0.24583645164966583,0.24583645164966583
736,1.0,0.02072703279554844,0.02072703279554844,1e-04,0.9399999976158142,0.24586567282676697,0.24586567282676697
737,1.0,0.020417865365743637,0.020417865365743637,1e-04,0.9413333535194397,0.24552826583385468,0.24552826583385468
738,1.0,0.02013504132628441,0.02013504132628441,1e-04,0.9402222037315369,0.24800580739974976,0.24800580739974976
739,1.0,0.019969873130321503,0.019969873130321503,1e-04,0.9408888816833496,0.24552984535694122,0.24552984535694122
740,1.0,0.019911205396056175,0.019911205396056175,1e-04,0.9408888816833496,0.24585916101932526,0.24585916101932526
741,1.0,0.019972193986177444,0.019972193986177444,1e-04,0.9391111135482788,0.2476286143064499,0.2476286143064499
742,1.0,0.020017879083752632,0.020017879083752632,1e-04,0.9411110877990723,0.24530045688152313,0.24530045688152313
743,1.0,0.02021697163581848,0.02021697163581848,1e-04,0.9377777576446533,0.24932584166526794,0.24932584166526794
744,1.0,0.020185941830277443,0.020185941830277443,1e-04,0.9411110877990723,0.24550317227840424,0.24550317227840424
745,1.0,0.02007654681801796,0.02007654681801796,1e-04,0.9395555257797241,0.24559958279132843,0.24559958279132843
746,1.0,0.01975882425904274,0.01975882425904274,1e-04,0.9399999976158142,0.2461412250995636,0.2461412250995636
747,1.0,0.019611351191997528,0.019611351191997528,1e-04,0.9411110877990723,0.24466976523399353,0.24466976523399353
748,1.0,0.019489947706460953,0.019489947706460953,1e-04,0.940666675567627,0.24558024108409882,0.24558024108409882
749,1.0,0.019491681829094887,0.019491681829094887,1e-04,0.9404444694519043,0.24550916254520416,0.24550916254520416
750,1.0,0.019672458991408348,0.019672458991408348,1e-04,0.9393333196640015,0.24617339670658112,0.24617339670658112
751,1.0,0.019885404035449028,0.019885404035449028,1e-04,0.9411110877990723,0.2458520233631134,0.2458520233631134
752,1.0,0.02010677382349968,0.02010677382349968,1e-04,0.9397777915000916,0.24510547518730164,0.24510547518730164
753,1.0,0.019836662337183952,0.019836662337183952,1e-04,0.9411110877990723,0.24554099142551422,0.24554099142551422
754,1.0,0.019598180428147316,0.019598180428147316,1e-04,0.9399999976158142,0.24570873379707336,0.24570873379707336
755,1.0,0.01925663650035858,0.01925663650035858,1e-04,0.9419999718666077,0.24488690495491028,0.24488690495491028
756,1.0,0.01908925734460354,0.01908925734460354,1e-04,0.9411110877990723,0.24521495401859283,0.24521495401859283
757,1.0,0.019114607945084572,0.019114607945084572,1e-04,0.941777765750885,0.2441011220216751,0.2441011220216751
758,1.0,0.019248202443122864,0.019248202443122864,1e-04,0.941777765750885,0.24691134691238403,0.24691134691238403
759,1.0,0.01944888010621071,0.01944888010621071,1e-04,0.941777765750885,0.24398648738861084,0.24398648738861084
760,1.0,0.019305238500237465,0.019305238500237465,1e-04,0.9413333535194397,0.2461356371641159,0.2461356371641159
761,1.0,0.019082894548773766,0.019082894548773766,1e-04,0.9422222375869751,0.24492602050304413,0.24492602050304413
762,1.0,0.0188327357172966,0.0188327357172966,1e-04,0.9413333535194397,0.24467909336090088,0.24467909336090088
763,1.0,0.018755974248051643,0.018755974248051643,1e-04,0.941777765750885,0.2461622655391693,0.2461622655391693
764,1.0,0.018734928220510483,0.018734928220510483,1e-04,0.9415555596351624,0.2446073442697525,0.2446073442697525
765,1.0,0.01879803091287613,0.01879803091287613,1e-04,0.9413333535194397,0.24606339633464813,0.24606339633464813
766,1.0,0.018949877470731735,0.018949877470731735,1e-04,0.9415555596351624,0.244962677359581,0.244962677359581
767,1.0,0.018934251740574837,0.018934251740574837,1e-04,0.940666675567627,0.24591758847236633,0.24591758847236633
768,1.0,0.0187543835490942,0.0187543835490942,1e-04,0.9397777915000916,0.24576371908187866,0.24576371908187866
769,1.0,0.018492547795176506,0.018492547795176506,1e-04,0.9408888816833496,0.24544812738895416,0.24544812738895416
770,1.0,0.018331877887248993,0.018331877887248993,1e-04,0.940666675567627,0.24562060832977295,0.24562060832977295
771,1.0,0.018298625946044922,0.018298625946044922,1e-04,0.9411110877990723,0.24547651410102844,0.24547651410102844
772,1.0,0.018334494903683662,0.018334494903683662,1e-04,0.9399999976158142,0.24594804644584656,0.24594804644584656
773,1.0,0.01841064728796482,0.01841064728796482,1e-04,0.9395555257797241,0.2464076578617096,0.2464076578617096
774,1.0,0.018476542085409164,0.018476542085409164,1e-04,0.9415555596351624,0.2460997998714447,0.2460997998714447
775,1.0,0.01854068785905838,0.01854068785905838,1e-04,0.9395555257797241,0.24632731080055237,0.24632731080055237
776,1.0,0.018361441791057587,0.018361441791057587,1e-04,0.9404444694519043,0.24567477405071259,0.24567477405071259
777,1.0,0.018173838034272194,0.018173838034272194,1e-04,0.9408888816833496,0.24542008340358734,0.24542008340358734
778,1.0,0.01796918921172619,0.01796918921172619,1e-04,0.9415555596351624,0.24554063379764557,0.24554063379764557
779,1.0,0.01787777617573738,0.01787777617573738,1e-04,0.9415555596351624,0.245777890086174,0.245777890086174
780,1.0,0.01789437048137188,0.01789437048137188,1e-04,0.9411110877990723,0.24531079828739166,0.24531079828739166
781,1.0,0.017978619784116745,0.017978619784116745,1e-04,0.9415555596351624,0.24668386578559875,0.24668386578559875
782,1.0,0.018123142421245575,0.018123142421245575,1e-04,0.9422222375869751,0.24492116272449493,0.24492116272449493
783,1.0,0.01809028908610344,0.01809028908610344,1e-04,0.941777765750885,0.24628813564777374,0.24628813564777374
784,1.0,0.018056165426969528,0.018056165426969528,1e-04,0.941777765750885,0.24470356106758118,0.24470356106758118
785,1.0,0.017848823219537735,0.017848823219537735,1e-04,0.9413333535194397,0.2458215355873108,0.2458215355873108
786,1.0,0.01768297515809536,0.01768297515809536,1e-04,0.9422222375869751,0.24509717524051666,0.24509717524051666
787,1.0,0.017536157742142677,0.017536157742142677,1e-04,0.9419999718666077,0.24542345106601715,0.24542345106601715
788,1.0,0.017471563071012497,0.017471563071012497,1e-04,0.9411110877990723,0.2455679327249527,0.2455679327249527
789,1.0,0.017460081726312637,0.017460081726312637,1e-04,0.9415555596351624,0.2453584223985672,0.2453584223985672
790,1.0,0.017475813627243042,0.017475813627243042,1e-04,0.9413333535194397,0.24624808132648468,0.24624808132648468
791,1.0,0.01756368950009346,0.01756368950009346,1e-04,0.9404444694519043,0.2456921935081482,0.2456921935081482
792,1.0,0.017609497532248497,0.017609497532248497,1e-04,0.941777765750885,0.24646171927452087,0.24646171927452087
793,1.0,0.017718177288770676,0.017718177288770676,1e-04,0.9397777915000916,0.24564437568187714,0.24564437568187714
794,1.0,0.017598532140254974,0.017598532140254974,1e-04,0.9415555596351624,0.2461632788181305,0.2461632788181305
795,1.0,0.01748550496995449,0.01748550496995449,1e-04,0.9404444694519043,0.2457282394170761,0.2457282394170761
796,1.0,0.01726567931473255,0.01726567931473255,1e-04,0.9411110877990723,0.24607649445533752,0.24607649445533752
797,1.0,0.017134664580225945,0.017134664580225945,1e-04,0.9404444694519043,0.24616330862045288,0.24616330862045288
798,1.0,0.017053307965397835,0.017053307965397835,1e-04,0.9393333196640015,0.2480800747871399,0.2480800747871399
799,1.0,0.017002319917082787,0.017002319917082787,1e-04,0.9397777915000916,0.24762101471424103,0.24762101471424103
800,1.0,0.016981082037091255,0.016981082037091255,1e-04,0.9382222294807434,0.24960406124591827,0.24960406124591827
801,1.0,0.01695203222334385,0.01695203222334385,1e-04,0.9384444355964661,0.24857741594314575,0.24857741594314575
802,1.0,0.016965113580226898,0.016965113580226898,1e-04,0.9384444355964661,0.24932639300823212,0.24932639300823212
803,1.0,0.016956722363829613,0.016956722363829613,1e-04,0.9399999976158142,0.24801883101463318,0.24801883101463318
804,1.0,0.016985280439257622,0.016985280439257622,1e-04,0.9371111392974854,0.25177350640296936,0.25177350640296936
805,1.0,0.017032526433467865,0.017032526433467865,1e-04,0.9408888816833496,0.2472919076681137,0.2472919076681137
806,1.0,0.017145274206995964,0.017145274206995964,1e-04,0.9371111392974854,0.2511495053768158,0.2511495053768158
807,1.0,0.01705239526927471,0.01705239526927471,1e-04,0.9411110877990723,0.24703407287597656,0.24703407287597656
808,1.0,0.016951564699411392,0.016951564699411392,1e-04,0.9386666417121887,0.24877893924713135,0.24877893924713135
809,1.0,0.01674583926796913,0.01674583926796913,1e-04,0.940666675567627,0.24779453873634338,0.24779453873634338
810,1.0,0.016582928597927094,0.016582928597927094,1e-04,0.9404444694519043,0.24732334911823273,0.24732334911823273
811,1.0,0.016486885026097298,0.016486885026097298,1e-04,0.9402222037315369,0.24751313030719757,0.24751313030719757
812,1.0,0.01646171137690544,0.01646171137690544,1e-04,0.9411110877990723,0.2467307448387146,0.2467307448387146
813,1.0,0.01650846190750599,0.01650846190750599,1e-04,0.9397777915000916,0.24719680845737457,0.24719680845737457
814,1.0,0.01655656471848488,0.01655656471848488,1e-04,0.9411110877990723,0.24664072692394257,0.24664072692394257
815,1.0,0.016621816903352737,0.016621816903352737,1e-04,0.9397777915000916,0.24683913588523865,0.24683913588523865
816,1.0,0.01657925359904766,0.01657925359904766,1e-04,0.9411110877990723,0.2468658834695816,0.2468658834695816
817,1.0,0.016542432829737663,0.016542432829737663,1e-04,0.9397777915000916,0.24774281680583954,0.24774281680583954
818,1.0,0.01638060063123703,0.01638060063123703,1e-04,0.9411110877990723,0.24701856076717377,0.24701856076717377
819,1.0,0.01624894142150879,0.01624894142150879,1e-04,0.9408888816833496,0.24709461629390717,0.24709461629390717
820,1.0,0.016112418845295906,0.016112418845295906,1e-04,0.940666675567627,0.2471393495798111,0.2471393495798111
821,1.0,0.01607162319123745,0.01607162319123745,1e-04,0.940666675567627,0.24765676259994507,0.24765676259994507
822,1.0,0.01608189567923546,0.01608189567923546,1e-04,0.9397777915000916,0.24835099279880524,0.24835099279880524
823,1.0,0.01613105647265911,0.01613105647265911,1e-04,0.940666675567627,0.24739284813404083,0.24739284813404083
824,1.0,0.01620711013674736,0.01620711013674736,1e-04,0.9384444355964661,0.24924680590629578,0.24924680590629578
825,1.0,0.01619197055697441,0.01619197055697441,1e-04,0.940666675567627,0.24707144498825073,0.24707144498825073
826,1.0,0.016227008774876595,0.016227008774876595,1e-04,0.9382222294807434,0.250200480222702,0.250200480222702
827,1.0,0.016101907938718796,0.016101907938718796,1e-04,0.9404444694519043,0.2480211853981018,0.2480211853981018
828,1.0,0.01601479761302471,0.01601479761302471,1e-04,0.9377777576446533,0.2515213191509247,0.2515213191509247
829,1.0,0.01586226001381874,0.01586226001381874,1e-04,0.9386666417121887,0.24948279559612274,0.24948279559612274
830,1.0,0.015756703913211823,0.015756703913211823,1e-04,0.9393333196640015,0.2494019865989685,0.2494019865989685
831,1.0,0.01567092351615429,0.01567092351615429,1e-04,0.9380000233650208,0.2520279288291931,0.2520279288291931
832,1.0,0.01562918908894062,0.01562918908894062,1e-04,0.9386666417121887,0.25128522515296936,0.25128522515296936
833,1.0,0.015630491077899933,0.015630491077899933,1e-04,0.933555543422699,0.255950391292572,0.255950391292572
834,1.0,0.015649450942873955,0.015649450942873955,1e-04,0.9391111135482788,0.2505159378051758,0.2505159378051758
835,1.0,0.01573457010090351,0.01573457010090351,1e-04,0.9359999895095825,0.2543199062347412,0.2543199062347412
836,1.0,0.015792185440659523,0.015792185440659523,1e-04,0.9384444355964661,0.25056397914886475,0.25056397914886475
837,1.0,0.015882126986980438,0.015882126986980438,1e-04,0.9364444613456726,0.25388309359550476,0.25388309359550476
838,1.0,0.01576661877334118,0.01576661877334118,1e-04,0.9399999976158142,0.24947068095207214,0.24947068095207214
839,1.0,0.015687236562371254,0.015687236562371254,1e-04,0.9357777833938599,0.2544555962085724,0.2544555962085724
840,1.0,0.015476926229894161,0.015476926229894161,1e-04,0.9384444355964661,0.2513534426689148,0.2513534426689148
841,1.0,0.01533509511500597,0.01533509511500597,1e-04,0.9357777833938599,0.2545064687728882,0.2545064687728882
842,1.0,0.015266330912709236,0.015266330912709236,1e-04,0.9371111392974854,0.25335025787353516,0.25335025787353516
843,1.0,0.015296190045773983,0.015296190045773983,1e-04,0.9366666674613953,0.2528175711631775,0.2528175711631775
844,1.0,0.015395118854939938,0.015395118854939938,1e-04,0.93022221326828,0.26096779108047485,0.26096779108047485
845,1.0,0.015486822463572025,0.015486822463572025,1e-04,0.9397777915000916,0.25021520256996155,0.25021520256996155
846,1.0,0.01562667451798916,0.01562667451798916,1e-04,0.9293333292007446,0.2613195776939392,0.2613195776939392
847,1.0,0.01553098764270544,0.01553098764270544,1e-04,0.9359999895095825,0.25312161445617676,0.25312161445617676
848,1.0,0.015362264588475227,0.015362264588475227,1e-04,0.9306666851043701,0.25889235734939575,0.25889235734939575
849,1.0,0.01511006336659193,0.01511006336659193,1e-04,0.933555543422699,0.2569192051887512,0.2569192051887512
850,1.0,0.014986755326390266,0.014986755326390266,1e-04,0.9371111392974854,0.2538311779499054,0.2538311779499054
851,1.0,0.014956491068005562,0.014956491068005562,1e-04,0.9308888912200928,0.260126531124115,0.260126531124115
852,1.0,0.014967257156968117,0.014967257156968117,1e-04,0.9337777495384216,0.2566952407360077,0.2566952407360077
853,1.0,0.015037504956126213,0.015037504956126213,1e-04,0.9324444532394409,0.2587735652923584,0.2587735652923584
854,1.0,0.015057691372931004,0.015057691372931004,1e-04,0.9340000152587891,0.25665879249572754,0.25665879249572754
855,1.0,0.015018652193248272,0.015018652193248272,1e-04,0.9306666851043701,0.2617252767086029,0.2617252767086029
856,1.0,0.014850573614239693,0.014850573614239693,1e-04,0.9322222471237183,0.25933170318603516,0.25933170318603516
857,1.0,0.014734720811247826,0.014734720811247826,1e-04,0.9311110973358154,0.2622523605823517,0.2622523605823517
858,1.0,0.014676299877464771,0.014676299877464771,1e-04,0.9322222471237183,0.2595643401145935,0.2595643401145935
859,1.0,0.014665802009403706,0.014665802009403706,1e-04,0.9319999814033508,0.2599530518054962,0.2599530518054962
860,1.0,0.014716966077685356,0.014716966077685356,1e-04,0.9275555610656738,0.26627880334854126,0.26627880334854126
861,1.0,0.014767840504646301,0.014767840504646301,1e-04,0.9377777576446533,0.25318142771720886,0.25318142771720886
862,1.0,0.014934183098375797,0.014934183098375797,1e-04,0.9277777671813965,0.26594778895378113,0.26594778895378113
863,1.0,0.014970049262046814,0.014970049262046814,1e-04,0.9364444613456726,0.25504380464553833,0.25504380464553833
864,1.0,0.014868587255477905,0.014868587255477905,1e-04,0.93022221326828,0.2624689042568207,0.2624689042568207
865,1.0,0.014600479044020176,0.014600479044020176,1e-04,0.9359999895095825,0.255969762802124,0.255969762802124
866,1.0,0.014449702575802803,0.014449702575802803,1e-04,0.9384444355964661,0.25361913442611694,0.25361913442611694
867,1.0,0.014380061067640781,0.014380061067640781,1e-04,0.9337777495384216,0.258202463388443,0.258202463388443
868,1.0,0.014365958981215954,0.014365958981215954,1e-04,0.9388889074325562,0.25387120246887207,0.25387120246887207
869,1.0,0.014428175985813141,0.014428175985813141,1e-04,0.9362221956253052,0.25698912143707275,0.25698912143707275
870,1.0,0.014523946680128574,0.014523946680128574,1e-04,0.9397777915000916,0.25348126888275146,0.25348126888275146
871,1.0,0.014655355364084244,0.014655355364084244,1e-04,0.937333345413208,0.2552230656147003,0.2552230656147003
872,1.0,0.014519518241286278,0.014519518241286278,1e-04,0.9397777915000916,0.2526870369911194,0.2526870369911194
873,1.0,0.014332077465951443,0.014332077465951443,1e-04,0.9386666417121887,0.25442883372306824,0.25442883372306824
874,1.0,0.014184428378939629,0.014184428378939629,1e-04,0.940666675567627,0.25278007984161377,0.25278007984161377
875,1.0,0.014097585342824459,0.014097585342824459,1e-04,0.9397777915000916,0.25339481234550476,0.25339481234550476
876,1.0,0.014083510264754295,0.014083510264754295,1e-04,0.9402222037315369,0.2533833682537079,0.2533833682537079
877,1.0,0.01411632914096117,0.01411632914096117,1e-04,0.9408888816833496,0.2528113126754761,0.2528113126754761
878,1.0,0.014218914322555065,0.014218914322555065,1e-04,0.9397777915000916,0.25362852215766907,0.25362852215766907
879,1.0,0.01427511591464281,0.01427511591464281,1e-04,0.9413333535194397,0.2530275881290436,0.2530275881290436
880,1.0,0.014228606596589088,0.014228606596589088,1e-04,0.940666675567627,0.2529524266719818,0.2529524266719818
881,1.0,0.014032738283276558,0.014032738283276558,1e-04,0.9411110877990723,0.2529965937137604,0.2529965937137604
882,1.0,0.013917957432568073,0.013917957432568073,1e-04,0.9411110877990723,0.2530154585838318,0.2530154585838318
883,1.0,0.013837955892086029,0.013837955892086029,1e-04,0.9408888816833496,0.2533456087112427,0.2533456087112427
884,1.0,0.013802987523376942,0.013802987523376942,1e-04,0.9415555596351624,0.2543546259403229,0.2543546259403229
885,1.0,0.013807117007672787,0.013807117007672787,1e-04,0.9415555596351624,0.254208505153656,0.254208505153656
886,1.0,0.013824771158397198,0.013824771158397198,1e-04,0.9413333535194397,0.25423797965049744,0.25423797965049744
887,1.0,0.013848244212567806,0.013848244212567806,1e-04,0.9415555596351624,0.2539181709289551,0.2539181709289551
888,1.0,0.01376649271696806,0.01376649271696806,1e-04,0.9415555596351624,0.25424033403396606,0.25424033403396606
889,1.0,0.013676564209163189,0.013676564209163189,1e-04,0.9411110877990723,0.2544599771499634,0.2544599771499634
890,1.0,0.0136007284745574,0.0136007284745574,1e-04,0.941777765750885,0.2555926740169525,0.2555926740169525
891,1.0,0.013556852005422115,0.013556852005422115,1e-04,0.941777765750885,0.2556433081626892,0.2556433081626892
892,1.0,0.013528737239539623,0.013528737239539623,1e-04,0.9422222375869751,0.2557123601436615,0.2557123601436615
893,1.0,0.013513538986444473,0.013513538986444473,1e-04,0.9419999718666077,0.25624018907546997,0.25624018907546997
894,1.0,0.01350609865039587,0.01350609865039587,1e-04,0.941777765750885,0.2552250921726227,0.2552250921726227
895,1.0,0.013516762293875217,0.013516762293875217,1e-04,0.9424444437026978,0.2579542398452759,0.2579542398452759
896,1.0,0.01354671735316515,0.01354671735316515,1e-04,0.9413333535194397,0.25503507256507874,0.25503507256507874
897,1.0,0.013563040643930435,0.013563040643930435,1e-04,0.9424444437026978,0.25733545422554016,0.25733545422554016
898,1.0,0.0136225875467062,0.0136225875467062,1e-04,0.9419999718666077,0.25483474135398865,0.25483474135398865
899,1.0,0.01357948873192072,0.01357948873192072,1e-04,0.9424444437026978,0.2574063539505005,0.2574063539505005
900,1.0,0.013560224324464798,0.013560224324464798,1e-04,0.9415555596351624,0.25516465306282043,0.25516465306282043
901,1.0,0.013452647253870964,0.013452647253870964,1e-04,0.941777765750885,0.25592249631881714,0.25592249631881714
902,1.0,0.01334607694298029,0.01334607694298029,1e-04,0.9415555596351624,0.2555120587348938,0.2555120587348938
903,1.0,0.013229970820248127,0.013229970820248127,1e-04,0.9415555596351624,0.2556229829788208,0.2556229829788208
904,1.0,0.013152088038623333,0.013152088038623333,1e-04,0.9411110877990723,0.2552672028541565,0.2552672028541565
905,1.0,0.013110597617924213,0.013110597617924213,1e-04,0.9413333535194397,0.2553482949733734,0.2553482949733734
906,1.0,0.013103360310196877,0.013103360310196877,1e-04,0.9408888816833496,0.2555815875530243,0.2555815875530243
907,1.0,0.013108870945870876,0.013108870945870876,1e-04,0.9411110877990723,0.2556825876235962,0.2556825876235962
908,1.0,0.01310457568615675,0.01310457568615675,1e-04,0.9411110877990723,0.2555260956287384,0.2555260956287384
909,1.0,0.013118108734488487,0.013118108734488487,1e-04,0.9397777915000916,0.2556491494178772,0.2556491494178772
910,1.0,0.013125326484441757,0.013125326484441757,1e-04,0.9415555596351624,0.2552545964717865,0.2552545964717865
911,1.0,0.013172225095331669,0.013172225095331669,1e-04,0.9391111135482788,0.256186842918396,0.256186842918396
912,1.0,0.013181958347558975,0.013181958347558975,1e-04,0.9411110877990723,0.255399614572525,0.255399614572525
913,1.0,0.013199294917285442,0.013199294917285442,1e-04,0.9382222294807434,0.2571178376674652,0.2571178376674652
914,1.0,0.013108388520777225,0.013108388520777225,1e-04,0.9408888816833496,0.25573575496673584,0.25573575496673584
915,1.0,0.013051578775048256,0.013051578775048256,1e-04,0.9399999976158142,0.2563801407814026,0.2563801407814026
916,1.0,0.012903505936264992,0.012903505936264992,1e-04,0.940666675567627,0.2559121549129486,0.2559121549129486
917,1.0,0.012800855562090874,0.012800855562090874,1e-04,0.9404444694519043,0.25660279393196106,0.25660279393196106
918,1.0,0.012723678722977638,0.012723678722977638,1e-04,0.9411110877990723,0.25681716203689575,0.25681716203689575
919,1.0,0.012701473198831081,0.012701473198831081,1e-04,0.940666675567627,0.25676023960113525,0.25676023960113525
920,1.0,0.012709518894553185,0.012709518894553185,1e-04,0.941777765750885,0.2568034827709198,0.2568034827709198
921,1.0,0.012713969685137272,0.012713969685137272,1e-04,0.9419999718666077,0.257342129945755,0.257342129945755
922,1.0,0.01273845974355936,0.01273845974355936,1e-04,0.940666675567627,0.2563513517379761,0.2563513517379761
923,1.0,0.012759077362716198,0.012759077362716198,1e-04,0.9428889155387878,0.2588551938533783,0.2588551938533783
924,1.0,0.012780586257576942,0.012780586257576942,1e-04,0.9413333535194397,0.25742480158805847,0.25742480158805847
925,1.0,0.012740104459226131,0.012740104459226131,1e-04,0.9428889155387878,0.2596468925476074,0.2596468925476074
926,1.0,0.012669257819652557,0.012669257819652557,1e-04,0.941777765750885,0.258016973733902,0.258016973733902
927,1.0,0.012548199854791164,0.012548199854791164,1e-04,0.9424444437026978,0.2593121826648712,0.2593121826648712
928,1.0,0.012464308179914951,0.012464308179914951,1e-04,0.9428889155387878,0.26161500811576843,0.26161500811576843
929,1.0,0.012409254908561707,0.012409254908561707,1e-04,0.9419999718666077,0.26021939516067505,0.26021939516067505
930,1.0,0.01241457648575306,0.01241457648575306,1e-04,0.9424444437026978,0.26361510157585144,0.26361510157585144
931,1.0,0.012475386261940002,0.012475386261940002,1e-04,0.9422222375869751,0.26084983348846436,0.26084983348846436
932,1.0,0.012542817741632462,0.012542817741632462,1e-04,0.941777765750885,0.2663456201553345,0.2663456201553345
933,1.0,0.0126221077516675,0.0126221077516675,1e-04,0.941777765750885,0.26252564787864685,0.26252564787864685
934,1.0,0.012558603659272194,0.012558603659272194,1e-04,0.9415555596351624,0.2681316137313843,0.2681316137313843
935,1.0,0.01249171607196331,0.01249171607196331,1e-04,0.9424444437026978,0.2637367248535156,0.2637367248535156
936,1.0,0.012349367141723633,0.012349367141723633,1e-04,0.9415555596351624,0.27003178000450134,0.27003178000450134
937,1.0,0.012237709015607834,0.012237709015607834,1e-04,0.9419999718666077,0.2654837965965271,0.2654837965965271
938,1.0,0.012166767381131649,0.012166767381131649,1e-04,0.9419999718666077,0.265767902135849,0.265767902135849
939,1.0,0.012141332030296326,0.012141332030296326,1e-04,0.9415555596351624,0.2672158181667328,0.2672158181667328
940,1.0,0.012135175056755543,0.012135175056755543,1e-04,0.9422222375869751,0.2654438614845276,0.2654438614845276
941,1.0,0.01213445421308279,0.01213445421308279,1e-04,0.9415555596351624,0.26691097021102905,0.26691097021102905
942,1.0,0.012113100849092007,0.012113100849092007,1e-04,0.9422222375869751,0.26382720470428467,0.26382720470428467
943,1.0,0.012067025527358055,0.012067025527358055,1e-04,0.941777765750885,0.2661041021347046,0.2661041021347046
944,1.0,0.012017321772873402,0.012017321772873402,1e-04,0.9424444437026978,0.2643131911754608,0.2643131911754608
945,1.0,0.011975657194852829,0.011975657194852829,1e-04,0.9422222375869751,0.26558297872543335,0.26558297872543335
946,1.0,0.011934792622923851,0.011934792622923851,1e-04,0.9422222375869751,0.2657047510147095,0.2657047510147095
947,1.0,0.01190930511802435,0.01190930511802435,1e-04,0.9426666498184204,0.2651559114456177,0.2651559114456177
948,1.0,0.011892147362232208,0.011892147362232208,1e-04,0.9415555596351624,0.26700639724731445,0.26700639724731445
949,1.0,0.01188285369426012,0.01188285369426012,1e-04,0.9426666498184204,0.2650037407875061,0.2650037407875061
950,1.0,0.011866074986755848,0.011866074986755848,1e-04,0.941777765750885,0.268999308347702,0.268999308347702
951,1.0,0.011872555129230022,0.011872555129230022,1e-04,0.9422222375869751,0.26564329862594604,0.26564329862594604
952,1.0,0.011874819174408913,0.011874819174408913,1e-04,0.9419999718666077,0.2717494070529938,0.2717494070529938
953,1.0,0.011935529299080372,0.011935529299080372,1e-04,0.9422222375869751,0.2674085795879364,0.2674085795879364
954,1.0,0.011987533420324326,0.011987533420324326,1e-04,0.9422222375869751,0.27445167303085327,0.27445167303085327
955,1.0,0.012101668864488602,0.012101668864488602,1e-04,0.9424444437026978,0.26621681451797485,0.26621681451797485
956,1.0,0.012043938972055912,0.012043938972055912,1e-04,0.9422222375869751,0.27479854226112366,0.27479854226112366
957,1.0,0.012002897448837757,0.012002897448837757,1e-04,0.941777765750885,0.2689158618450165,0.2689158618450165
958,1.0,0.0117885060608387,0.0117885060608387,1e-04,0.9422222375869751,0.2731621563434601,0.2731621563434601
959,1.0,0.011652288027107716,0.011652288027107716,1e-04,0.9422222375869751,0.27359840273857117,0.27359840273857117
960,1.0,0.011587406508624554,0.011587406508624554,1e-04,0.941777765750885,0.27294430136680603,0.27294430136680603
961,1.0,0.011578451842069626,0.011578451842069626,1e-04,0.9415555596351624,0.2783231735229492,0.2783231735229492
962,1.0,0.01163012906908989,0.01163012906908989,1e-04,0.9413333535194397,0.27157607674598694,0.27157607674598694
963,1.0,0.011686698533594608,0.011686698533594608,1e-04,0.9413333535194397,0.2768547236919403,0.2768547236919403
964,1.0,0.011755741201341152,0.011755741201341152,1e-04,0.941777765750885,0.27055609226226807,0.27055609226226807
965,1.0,0.01170762162655592,0.01170762162655592,1e-04,0.9415555596351624,0.27874231338500977,0.27874231338500977
966,1.0,0.011661363765597343,0.011661363765597343,1e-04,0.9413333535194397,0.2718203663825989,0.2718203663825989
967,1.0,0.011549774557352066,0.011549774557352066,1e-04,0.941777765750885,0.2789088487625122,0.2789088487625122
968,1.0,0.011454812251031399,0.011454812251031399,1e-04,0.941777765750885,0.2747603952884674,0.2747603952884674
969,1.0,0.011366849765181541,0.011366849765181541,1e-04,0.941777765750885,0.2772427797317505,0.2772427797317505
970,1.0,0.011331522837281227,0.011331522837281227,1e-04,0.9415555596351624,0.2815365791320801,0.2815365791320801
971,1.0,0.01133258268237114,0.01133258268237114,1e-04,0.9413333535194397,0.2791624069213867,0.2791624069213867
972,1.0,0.011349445208907127,0.011349445208907127,1e-04,0.9413333535194397,0.28819042444229126,0.28819042444229126
973,1.0,0.011364535428583622,0.011364535428583622,1e-04,0.9408888816833496,0.28097039461135864,0.28097039461135864
974,1.0,0.011335312388837337,0.011335312388837337,1e-04,0.9415555596351624,0.2862529754638672,0.2862529754638672
975,1.0,0.011293984949588776,0.011293984949588776,1e-04,0.9419999718666077,0.2888152003288269,0.2888152003288269
976,1.0,0.011240427382290363,0.011240427382290363,1e-04,0.9413333535194397,0.29076600074768066,0.29076600074768066
977,1.0,0.011174479499459267,0.011174479499459267,1e-04,0.9413333535194397,0.2907845079898834,0.2907845079898834
978,1.0,0.011136285960674286,0.011136285960674286,1e-04,0.9413333535194397,0.2912155091762543,0.2912155091762543
979,1.0,0.011121971532702446,0.011121971532702446,1e-04,0.940666675567627,0.2975482642650604,0.2975482642650604
980,1.0,0.01112817507237196,0.01112817507237196,1e-04,0.9411110877990723,0.2937757670879364,0.2937757670879364
981,1.0,0.011141433380544186,0.011141433380544186,1e-04,0.9408888816833496,0.29499301314353943,0.29499301314353943
982,1.0,0.011172468774020672,0.011172468774020672,1e-04,0.9419999718666077,0.2896077036857605,0.2896077036857605
983,1.0,0.011142400093376637,0.011142400093376637,1e-04,0.9402222037315369,0.2989967167377472,0.2989967167377472
984,1.0,0.011129402555525303,0.011129402555525303,1e-04,0.9411110877990723,0.28789007663726807,0.28789007663726807
985,1.0,0.011081986129283905,0.011081986129283905,1e-04,0.9411110877990723,0.2943460941314697,0.2943460941314697
986,1.0,0.010993734002113342,0.010993734002113342,1e-04,0.9415555596351624,0.2902017831802368,0.2902017831802368
987,1.0,0.01092939730733633,0.01092939730733633,1e-04,0.9415555596351624,0.29033732414245605,0.29033732414245605
