epoch,accuracy,categorical_crossentropy,loss,lr,val_accuracy,val_categorical_crossentropy,val_loss
0,0.035999998450279236,1.6814216375350952,1.6814216375350952,0.001,0.5837777853012085,1.604573130607605,1.604573130607605
1,0.6340000033378601,1.2075951099395752,1.2075951099395752,0.001,0.8724444508552551,1.5993682146072388,1.5993682146072388
2,0.8539999723434448,0.9329915642738342,0.9329915642738342,0.001,0.7557777762413025,1.5946139097213745,1.5946139097213745
3,0.8899999856948853,0.769943118095398,0.769943118095398,0.001,0.687333345413208,1.5888328552246094,1.5888328552246094
4,0.8939999938011169,0.6629010438919067,0.6629010438919067,0.001,0.6731111407279968,1.5823955535888672,1.5823955535888672
5,0.8939999938011169,0.6011065244674683,0.6011065244674683,0.001,0.636888861656189,1.5757607221603394,1.5757607221603394
6,0.8960000276565552,0.5518291592597961,0.5518291592597961,0.001,0.5588889122009277,1.5693188905715942,1.5693188905715942
7,0.906000018119812,0.5113702416419983,0.5113702416419983,0.001,0.4475555419921875,1.5633496046066284,1.5633496046066284
8,0.906000018119812,0.48028242588043213,0.48028242588043213,0.001,0.38511112332344055,1.5579562187194824,1.5579562187194824
9,0.906000018119812,0.45416104793548584,0.45416104793548584,0.001,0.36444443464279175,1.55326247215271,1.55326247215271
10,0.9100000262260437,0.4319952726364136,0.4319952726364136,0.001,0.3584444522857666,1.549372911453247,1.549372911453247
11,0.9120000004768372,0.4139246642589569,0.4139246642589569,0.001,0.3553333282470703,1.546234369277954,1.546234369277954
12,0.9120000004768372,0.3986635208129883,0.3986635208129883,0.001,0.3544444441795349,1.5436794757843018,1.5436794757843018
13,0.9120000004768372,0.38510507345199585,0.38510507345199585,0.001,0.3548888862133026,1.541542649269104,1.541542649269104
14,0.9120000004768372,0.37303411960601807,0.37303411960601807,0.001,0.35466668009757996,1.53969144821167,1.53969144821167
15,0.9139999747276306,0.3623034358024597,0.3623034358024597,0.001,0.35422220826148987,1.5381115674972534,1.5381115674972534
16,0.9160000085830688,0.35292768478393555,0.35292768478393555,0.001,0.35377776622772217,1.5367939472198486,1.5367939472198486
17,0.9179999828338623,0.3446182608604431,0.3446182608604431,0.001,0.35377776622772217,1.535701870918274,1.535701870918274
18,0.9179999828338623,0.3370422422885895,0.3370422422885895,0.001,0.35377776622772217,1.5348314046859741,1.5348314046859741
19,0.921999990940094,0.3299529254436493,0.3299529254436493,0.001,0.3535555601119995,1.534151315689087,1.534151315689087
20,0.9279999732971191,0.3233247399330139,0.3233247399330139,0.001,0.35333332419395447,1.533642292022705,1.533642292022705
21,0.9279999732971191,0.3171634376049042,0.3171634376049042,0.001,0.35333332419395447,1.5332820415496826,1.5332820415496826
22,0.9279999732971191,0.311415433883667,0.311415433883667,0.001,0.35333332419395447,1.5330170392990112,1.5330170392990112
23,0.9279999732971191,0.3060145974159241,0.3060145974159241,0.001,0.35333332419395447,1.532861590385437,1.532861590385437
24,0.9300000071525574,0.3008109927177429,0.3008109927177429,0.001,0.35333332419395447,1.5328280925750732,1.5328280925750732
25,0.9300000071525574,0.2957971692085266,0.2957971692085266,0.001,0.35333332419395447,1.5329991579055786,1.5329991579055786
26,0.9300000071525574,0.2910286784172058,0.2910286784172058,0.001,0.35333332419395447,1.5333768129348755,1.5333768129348755
27,0.9300000071525574,0.28650006651878357,0.28650006651878357,0.001,0.35333332419395447,1.5340884923934937,1.5340884923934937
28,0.9300000071525574,0.2820127010345459,0.2820127010345459,0.001,0.35333332419395447,1.5351003408432007,1.5351003408432007
29,0.9300000071525574,0.277494877576828,0.277494877576828,0.001,0.35333332419395447,1.5363768339157104,1.5363768339157104
30,0.9319999814033508,0.273095041513443,0.273095041513443,0.001,0.35333332419395447,1.5378917455673218,1.5378917455673218
31,0.9319999814033508,0.26886987686157227,0.26886987686157227,0.001,0.35333332419395447,1.5395556688308716,1.5395556688308716
32,0.9319999814033508,0.2647974491119385,0.2647974491119385,0.001,0.35333332419395447,1.541242241859436,1.541242241859436
33,0.9340000152587891,0.26080071926116943,0.26080071926116943,0.001,0.35333332419395447,1.5429681539535522,1.5429681539535522
34,0.9340000152587891,0.25685665011405945,0.25685665011405945,0.001,0.35333332419395447,1.544772744178772,1.544772744178772
35,0.9340000152587891,0.25301116704940796,0.25301116704940796,0.001,0.35333332419395447,1.5467942953109741,1.5467942953109741
36,0.9340000152587891,0.24925421178340912,0.24925421178340912,0.001,0.35333332419395447,1.5490517616271973,1.5490517616271973
37,0.9340000152587891,0.24566736817359924,0.24566736817359924,0.001,0.35333332419395447,1.5514894723892212,1.5514894723892212
38,0.9380000233650208,0.2423391193151474,0.2423391193151474,0.001,0.35333332419395447,1.5541903972625732,1.5541903972625732
39,0.9380000233650208,0.23915255069732666,0.23915255069732666,0.001,0.35333332419395447,1.557097315788269,1.557097315788269
40,0.9380000233650208,0.2360362857580185,0.2360362857580185,0.001,0.35333332419395447,1.56019926071167,1.56019926071167
41,0.9380000233650208,0.23304066061973572,0.23304066061973572,0.001,0.35333332419395447,1.563611388206482,1.563611388206482
42,0.9380000233650208,0.23016850650310516,0.23016850650310516,0.001,0.35333332419395447,1.567360520362854,1.567360520362854
43,0.9380000233650208,0.22732044756412506,0.22732044756412506,0.001,0.35333332419395447,1.5713911056518555,1.5713911056518555
44,0.9380000233650208,0.2245895117521286,0.2245895117521286,0.001,0.35333332419395447,1.5757213830947876,1.5757213830947876
45,0.9380000233650208,0.2221224159002304,0.2221224159002304,0.001,0.35333332419395447,1.5797604322433472,1.5797604322433472
46,0.9380000233650208,0.21989665925502777,0.21989665925502777,0.001,0.35333332419395447,1.584126353263855,1.584126353263855
47,0.9380000233650208,0.21783347427845,0.21783347427845,0.001,0.35333332419395447,1.5877519845962524,1.5877519845962524
48,0.9380000233650208,0.2159823626279831,0.2159823626279831,0.001,0.35333332419395447,1.5923422574996948,1.5923422574996948
49,0.9380000233650208,0.21360521018505096,0.21360521018505096,0.001,0.35333332419395447,1.595931053161621,1.595931053161621
50,0.9380000233650208,0.21093358099460602,0.21093358099460602,0.001,0.35333332419395447,1.5998868942260742,1.5998868942260742
51,0.9380000233650208,0.20840463042259216,0.20840463042259216,0.001,0.35333332419395447,1.6038408279418945,1.6038408279418945
52,0.9380000233650208,0.2067587971687317,0.2067587971687317,0.001,0.35333332419395447,1.606835126876831,1.606835126876831
53,0.9380000233650208,0.2063814252614975,0.2063814252614975,0.001,0.35288888216018677,1.6113173961639404,1.6113173961639404
54,0.9380000233650208,0.2052583247423172,0.2052583247423172,0.001,0.3364444375038147,1.613981008529663,1.613981008529663
55,0.9380000233650208,0.20255587995052338,0.20255587995052338,0.001,0.18755555152893066,1.6180181503295898,1.6180181503295898
56,0.9380000233650208,0.19907058775424957,0.19907058775424957,0.001,0.06911110877990723,1.6222326755523682,1.6222326755523682
57,0.9380000233650208,0.1993710994720459,0.1993710994720459,0.001,0.05666666850447655,1.6245930194854736,1.6245930194854736
58,0.9440000057220459,0.1973252296447754,0.1973252296447754,0.001,0.052444443106651306,1.628212332725525,1.628212332725525
59,0.9419999718666077,0.19312116503715515,0.19312116503715515,0.001,0.05133333429694176,1.6318310499191284,1.6318310499191284
60,0.9380000233650208,0.19451750814914703,0.19451750814914703,0.001,0.052222222089767456,1.6331862211227417,1.6331862211227417
61,0.9440000057220459,0.19502557814121246,0.19502557814121246,0.001,0.05066666752099991,1.637323021888733,1.637323021888733
62,0.9459999799728394,0.18874414265155792,0.18874414265155792,0.001,0.04800000041723251,1.6411681175231934,1.6411681175231934
63,0.9440000057220459,0.191177636384964,0.191177636384964,0.001,0.04800000041723251,1.642934799194336,1.642934799194336
64,0.9480000138282776,0.18713712692260742,0.18713712692260742,0.001,0.047555554658174515,1.6457421779632568,1.6457421779632568
65,0.9480000138282776,0.18510383367538452,0.18510383367538452,0.001,0.04622222110629082,1.6494065523147583,1.6494065523147583
66,0.9480000138282776,0.18673314154148102,0.18673314154148102,0.001,0.048222221434116364,1.6503993272781372,1.6503993272781372
67,0.949999988079071,0.18111646175384521,0.18111646175384521,0.001,0.04955555498600006,1.6521836519241333,1.6521836519241333
68,0.9520000219345093,0.18119077384471893,0.18119077384471893,0.001,0.04955555498600006,1.6559301614761353,1.6559301614761353
69,0.949999988079071,0.1795160174369812,0.1795160174369812,0.001,0.052666667848825455,1.65860915184021,1.65860915184021
70,0.9520000219345093,0.17683088779449463,0.17683088779449463,0.001,0.0568888895213604,1.6608580350875854,1.6608580350875854
71,0.9520000219345093,0.17750269174575806,0.17750269174575806,0.001,0.058666665107011795,1.6654057502746582,1.6654057502746582
72,0.9520000219345093,0.17372764647006989,0.17372764647006989,0.001,0.06488888710737228,1.6696064472198486,1.6696064472198486
73,0.9520000219345093,0.17296530306339264,0.17296530306339264,0.001,0.09733333438634872,1.672647476196289,1.672647476196289
74,0.9520000219345093,0.1726742833852768,0.1726742833852768,0.0005,0.11355555802583694,1.6759401559829712,1.6759401559829712
75,0.9520000219345093,0.1704574078321457,0.1704574078321457,0.0005,0.1428888887166977,1.6795846223831177,1.6795846223831177
76,0.9520000219345093,0.17001894116401672,0.17001894116401672,0.0005,0.23000000417232513,1.682557225227356,1.682557225227356
77,0.9520000219345093,0.1695067435503006,0.1695067435503006,0.0005,0.3333333432674408,1.6848459243774414,1.6848459243774414
78,0.9539999961853027,0.16778819262981415,0.16778819262981415,0.0005,0.35066667199134827,1.6875933408737183,1.6875933408737183
79,0.9539999961853027,0.16821911931037903,0.16821911931037903,0.0005,0.3513333201408386,1.6914646625518799,1.6914646625518799
80,0.9520000219345093,0.16619549691677094,0.16619549691677094,0.0005,0.3513333201408386,1.6955235004425049,1.6955235004425049
81,0.9520000219345093,0.16637258231639862,0.16637258231639862,0.0005,0.3526666760444641,1.6988786458969116,1.6988786458969116
82,0.9520000219345093,0.16487134993076324,0.16487134993076324,0.0005,0.35333332419395447,1.701805830001831,1.701805830001831
83,0.9539999961853027,0.1644870936870575,0.1644870936870575,0.0005,0.35333332419395447,1.705212950706482,1.705212950706482
84,0.9520000219345093,0.16351550817489624,0.16351550817489624,0.0005,0.35333332419395447,1.708901047706604,1.708901047706604
85,0.9520000219345093,0.16275881230831146,0.16275881230831146,0.0005,0.35333332419395447,1.7120153903961182,1.7120153903961182
86,0.9520000219345093,0.161982461810112,0.161982461810112,0.0005,0.35333332419395447,1.7146497964859009,1.7146497964859009
87,0.9520000219345093,0.16121506690979004,0.16121506690979004,0.0005,0.35333332419395447,1.7178211212158203,1.7178211212158203
88,0.9520000219345093,0.16043199598789215,0.16043199598789215,0.0005,0.35333332419395447,1.72150719165802,1.72150719165802
89,0.9539999961853027,0.15969586372375488,0.15969586372375488,0.0005,0.35333332419395447,1.7247514724731445,1.7247514724731445
90,0.9539999961853027,0.15876910090446472,0.15876910090446472,0.0005,0.35333332419395447,1.7276417016983032,1.7276417016983032
91,0.9520000219345093,0.15825581550598145,0.15825581550598145,0.0005,0.35333332419395447,1.7310028076171875,1.7310028076171875
92,0.9520000219345093,0.15719440579414368,0.15719440579414368,0.0005,0.35333332419395447,1.7344613075256348,1.7344613075256348
93,0.9539999961853027,0.15683835744857788,0.15683835744857788,0.0005,0.35333332419395447,1.7369009256362915,1.7369009256362915
94,0.9539999961853027,0.15572671592235565,0.15572671592235565,0.0005,0.35333332419395447,1.739104986190796,1.739104986190796
95,0.9520000219345093,0.1551966816186905,0.1551966816186905,0.0005,0.35333332419395447,1.7416880130767822,1.7416880130767822
96,0.9539999961853027,0.15438659489154816,0.15438659489154816,0.0005,0.35333332419395447,1.7439172267913818,1.7439172267913818
97,0.9539999961853027,0.15348073840141296,0.15348073840141296,0.0005,0.35333332419395447,1.745847225189209,1.745847225189209
98,0.9539999961853027,0.15301547944545746,0.15301547944545746,0.0005,0.35333332419395447,1.7483782768249512,1.7483782768249512
99,0.9539999961853027,0.15205810964107513,0.15205810964107513,0.0005,0.35333332419395447,1.7506041526794434,1.7506041526794434
100,0.9559999704360962,0.15135909616947174,0.15135909616947174,0.0005,0.35333332419395447,1.7524187564849854,1.7524187564849854
101,0.9539999961853027,0.15078069269657135,0.15078069269657135,0.0005,0.35333332419395447,1.7549116611480713,1.7549116611480713
102,0.9559999704360962,0.1498698592185974,0.1498698592185974,0.0005,0.35333332419395447,1.757106065750122,1.757106065750122
103,0.9580000042915344,0.14913025498390198,0.14913025498390198,0.0005,0.35333332419395447,1.759096622467041,1.759096622467041
104,0.9559999704360962,0.14852695167064667,0.14852695167064667,0.0005,0.35333332419395447,1.7611669301986694,1.7611669301986694
105,0.9580000042915344,0.14777116477489471,0.14777116477489471,0.0005,0.35333332419395447,1.7624825239181519,1.7624825239181519
106,0.9580000042915344,0.1469462513923645,0.1469462513923645,0.0005,0.35333332419395447,1.7637550830841064,1.7637550830841064
107,0.9580000042915344,0.14631381630897522,0.14631381630897522,0.0005,0.35333332419395447,1.7651240825653076,1.7651240825653076
108,0.9580000042915344,0.1457737386226654,0.1457737386226654,0.0005,0.35333332419395447,1.7658637762069702,1.7658637762069702
109,0.9559999704360962,0.14523078501224518,0.14523078501224518,0.0005,0.35333332419395447,1.7674232721328735,1.7674232721328735
110,0.9580000042915344,0.1444307267665863,0.1444307267665863,0.0005,0.35333332419395447,1.7685997486114502,1.7685997486114502
111,0.9580000042915344,0.1434699296951294,0.1434699296951294,0.0005,0.35333332419395447,1.7700828313827515,1.7700828313827515
112,0.9580000042915344,0.14273430407047272,0.14273430407047272,0.0005,0.35333332419395447,1.7715771198272705,1.7715771198272705
113,0.9599999785423279,0.142350971698761,0.142350971698761,0.0005,0.35333332419395447,1.772254467010498,1.772254467010498
114,0.9580000042915344,0.1425352394580841,0.1425352394580841,0.0005,0.35333332419395447,1.7748281955718994,1.7748281955718994
115,0.9599999785423279,0.14207503199577332,0.14207503199577332,0.0005,0.35333332419395447,1.7757699489593506,1.7757699489593506
116,0.9599999785423279,0.14093804359436035,0.14093804359436035,0.0005,0.35333332419395447,1.7776615619659424,1.7776615619659424
117,0.9599999785423279,0.13946348428726196,0.13946348428726196,0.0005,0.35333332419395447,1.7785723209381104,1.7785723209381104
118,0.9599999785423279,0.1388310194015503,0.1388310194015503,0.0005,0.35333332419395447,1.7785332202911377,1.7785332202911377
119,0.9620000123977661,0.1390455961227417,0.1390455961227417,0.0005,0.35333332419395447,1.7803961038589478,1.7803961038589478
120,0.9599999785423279,0.1391516625881195,0.1391516625881195,0.0005,0.35333332419395447,1.7808159589767456,1.7808159589767456
121,0.9599999785423279,0.13933856785297394,0.13933856785297394,0.0005,0.35333332419395447,1.7837225198745728,1.7837225198745728
122,0.9599999785423279,0.13688047230243683,0.13688047230243683,0.0005,0.35333332419395447,1.7849982976913452,1.7849982976913452
123,0.9599999785423279,0.13573653995990753,0.13573653995990753,0.0005,0.35333332419395447,1.7841304540634155,1.7841304540634155
124,0.9620000123977661,0.13660626113414764,0.13660626113414764,0.00025,0.35333332419395447,1.7848446369171143,1.7848446369171143
125,0.9620000123977661,0.13447712361812592,0.13447712361812592,0.00025,0.35333332419395447,1.7854856252670288,1.7854856252670288
126,0.9599999785423279,0.13576145470142365,0.13576145470142365,0.00025,0.35333332419395447,1.7851676940917969,1.7851676940917969
127,0.9620000123977661,0.13381341099739075,0.13381341099739075,0.00025,0.35333332419395447,1.7849127054214478,1.7849127054214478
128,0.9620000123977661,0.1346769481897354,0.1346769481897354,0.00025,0.35333332419395447,1.7855896949768066,1.7855896949768066
129,0.9620000123977661,0.13335151970386505,0.13335151970386505,0.00025,0.35333332419395447,1.786590576171875,1.786590576171875
130,0.9599999785423279,0.13376516103744507,0.13376516103744507,0.00025,0.35333332419395447,1.7865673303604126,1.7865673303604126
131,0.9620000123977661,0.13259173929691315,0.13259173929691315,0.00025,0.35333332419395447,1.7860885858535767,1.7860885858535767
132,0.9620000123977661,0.13274621963500977,0.13274621963500977,0.00025,0.35333332419395447,1.7865827083587646,1.7865827083587646
133,0.9620000123977661,0.13202504813671112,0.13202504813671112,0.00025,0.35333332419395447,1.7876232862472534,1.7876232862472534
134,0.9620000123977661,0.13187089562416077,0.13187089562416077,0.00025,0.35333332419395447,1.788276195526123,1.788276195526123
135,0.9620000123977661,0.13126252591609955,0.13126252591609955,0.00025,0.35333332419395447,1.7882941961288452,1.7882941961288452
136,0.9620000123977661,0.13109518587589264,0.13109518587589264,0.00025,0.35333332419395447,1.7890217304229736,1.7890217304229736
137,0.9620000123977661,0.13053877651691437,0.13053877651691437,0.00025,0.35333332419395447,1.7900053262710571,1.7900053262710571
138,0.9620000123977661,0.13035275042057037,0.13035275042057037,0.00025,0.35333332419395447,1.7904276847839355,1.7904276847839355
139,0.9620000123977661,0.12975747883319855,0.12975747883319855,0.00025,0.35333332419395447,1.7905141115188599,1.7905141115188599
140,0.9620000123977661,0.12968873977661133,0.12968873977661133,0.00025,0.35333332419395447,1.7909305095672607,1.7909305095672607
141,0.9620000123977661,0.1289915293455124,0.1289915293455124,0.00025,0.35333332419395447,1.7914152145385742,1.7914152145385742
142,0.9620000123977661,0.12901821732521057,0.12901821732521057,0.00025,0.35333332419395447,1.7909218072891235,1.7909218072891235
143,0.9620000123977661,0.12825457751750946,0.12825457751750946,0.00025,0.35333332419395447,1.790292501449585,1.790292501449585
144,0.9620000123977661,0.12832702696323395,0.12832702696323395,0.00025,0.35333332419395447,1.7904565334320068,1.7904565334320068
145,0.9620000123977661,0.12757250666618347,0.12757250666618347,0.00025,0.35333332419395447,1.7904727458953857,1.7904727458953857
146,0.9620000123977661,0.12757210433483124,0.12757210433483124,0.00025,0.35333332419395447,1.789900302886963,1.789900302886963
147,0.9620000123977661,0.12699252367019653,0.12699252367019653,0.00025,0.35333332419395447,1.7895045280456543,1.7895045280456543
148,0.9620000123977661,0.12668021023273468,0.12668021023273468,0.00025,0.35333332419395447,1.7894792556762695,1.7894792556762695
149,0.9620000123977661,0.12645934522151947,0.12645934522151947,0.00025,0.35333332419395447,1.7886877059936523,1.7886877059936523
150,0.9620000123977661,0.1258518099784851,0.1258518099784851,0.00025,0.35333332419395447,1.787541151046753,1.787541151046753
151,0.9620000123977661,0.1257714033126831,0.1257714033126831,0.00025,0.35333332419395447,1.7867368459701538,1.7867368459701538
152,0.9620000123977661,0.12520578503608704,0.12520578503608704,0.00025,0.35333332419395447,1.7852118015289307,1.7852118015289307
153,0.9620000123977661,0.1248948946595192,0.1248948946595192,0.00025,0.35333332419395447,1.783245325088501,1.783245325088501
154,0.9620000123977661,0.1246798112988472,0.1246798112988472,0.00025,0.35333332419395447,1.781874179840088,1.781874179840088
155,0.9620000123977661,0.12411878257989883,0.12411878257989883,0.00025,0.35333332419395447,1.7803958654403687,1.7803958654403687
156,0.9620000123977661,0.12392530590295792,0.12392530590295792,0.00025,0.35333332419395447,1.7783068418502808,1.7783068418502808
157,0.9620000123977661,0.12358786910772324,0.12358786910772324,0.00025,0.35333332419395447,1.7764829397201538,1.7764829397201538
158,0.9620000123977661,0.12307393550872803,0.12307393550872803,0.00025,0.35333332419395447,1.774523377418518,1.774523377418518
159,0.9620000123977661,0.1228671744465828,0.1228671744465828,0.00025,0.35333332419395447,1.7719776630401611,1.7719776630401611
160,0.9620000123977661,0.12252367287874222,0.12252367287874222,0.00025,0.35333332419395447,1.7700482606887817,1.7700482606887817
161,0.9620000123977661,0.12201539427042007,0.12201539427042007,0.00025,0.35333332419395447,1.7680236101150513,1.7680236101150513
162,0.9620000123977661,0.12173770368099213,0.12173770368099213,0.00025,0.35333332419395447,1.7652939558029175,1.7652939558029175
163,0.9620000123977661,0.12145459651947021,0.12145459651947021,0.00025,0.35333332419395447,1.7632232904434204,1.7632232904434204
164,0.9620000123977661,0.12097151577472687,0.12097151577472687,0.00025,0.35333332419395447,1.7607253789901733,1.7607253789901733
165,0.9620000123977661,0.120603047311306,0.120603047311306,0.00025,0.35333332419395447,1.7580653429031372,1.7580653429031372
166,0.9620000123977661,0.1203283965587616,0.1203283965587616,0.00025,0.35333332419395447,1.75608229637146,1.75608229637146
167,0.9620000123977661,0.119942307472229,0.119942307472229,0.00025,0.35333332419395447,1.7538087368011475,1.7538087368011475
168,0.9620000123977661,0.119539774954319,0.119539774954319,0.00025,0.35333332419395447,1.7518945932388306,1.7518945932388306
169,0.9620000123977661,0.1191481500864029,0.1191481500864029,0.00025,0.35333332419395447,1.7498365640640259,1.7498365640640259
170,0.9620000123977661,0.11879603564739227,0.11879603564739227,0.00025,0.35333332419395447,1.747465968132019,1.747465968132019
171,0.9620000123977661,0.11846432834863663,0.11846432834863663,0.00025,0.35333332419395447,1.7457287311553955,1.7457287311553955
172,0.9620000123977661,0.11816100776195526,0.11816100776195526,0.00025,0.35333332419395447,1.7434221506118774,1.7434221506118774
173,0.9620000123977661,0.11784302443265915,0.11784302443265915,0.00025,0.35333332419395447,1.7419404983520508,1.7419404983520508
174,0.9620000123977661,0.11751671135425568,0.11751671135425568,0.000125,0.35333332419395447,1.7414462566375732,1.7414462566375732
175,0.9620000123977661,0.11716549843549728,0.11716549843549728,0.000125,0.35333332419395447,1.7408136129379272,1.7408136129379272
176,0.9620000123977661,0.1171211525797844,0.1171211525797844,0.000125,0.35333332419395447,1.7404550313949585,1.7404550313949585
177,0.9620000123977661,0.11680307239294052,0.11680307239294052,0.000125,0.35333332419395447,1.7400403022766113,1.7400403022766113
178,0.9639999866485596,0.11669757962226868,0.11669757962226868,0.000125,0.35333332419395447,1.739332914352417,1.739332914352417
179,0.9620000123977661,0.11642840504646301,0.11642840504646301,0.000125,0.35333332419395447,1.738953948020935,1.738953948020935
180,0.9620000123977661,0.11630266159772873,0.11630266159772873,0.000125,0.35333332419395447,1.7388910055160522,1.7388911247253418
181,0.9639999866485596,0.11603477597236633,0.11603477597236633,0.000125,0.35333332419395447,1.7386804819107056,1.7386804819107056
182,0.9639999866485596,0.11589617282152176,0.11589617282152176,0.000125,0.35333332419395447,1.7379744052886963,1.7379744052886963
183,0.9620000123977661,0.11565504968166351,0.11565504968166351,0.000125,0.35333332419395447,1.7372342348098755,1.7372342348098755
184,0.9620000123977661,0.115487240254879,0.115487240254879,0.000125,0.35333332419395447,1.7367591857910156,1.7367591857910156
185,0.9639999866485596,0.11527461558580399,0.11527461558580399,0.000125,0.35333332419395447,1.736272931098938,1.736272931098938
186,0.9639999866485596,0.11508157104253769,0.11508157104253769,0.000125,0.35333332419395447,1.735525369644165,1.735525369644165
187,0.9639999866485596,0.11490114778280258,0.11490114778280258,0.000125,0.35333332419395447,1.7350775003433228,1.7350775003433228
188,0.9639999866485596,0.11468835175037384,0.11468835175037384,0.000125,0.35333332419395447,1.7347404956817627,1.7347404956817627
189,0.9639999866485596,0.11451632529497147,0.11451632529497147,0.000125,0.35333332419395447,1.7338426113128662,1.7338426113128662
190,0.9639999866485596,0.11430242657661438,0.11430242657661438,0.000125,0.35333332419395447,1.7330279350280762,1.7330279350280762
191,0.9639999866485596,0.11410871893167496,0.11410871893167496,0.000125,0.35333332419395447,1.732215166091919,1.732215166091919
192,0.9639999866485596,0.11392205208539963,0.11392205208539963,0.000125,0.35333332419395447,1.7310248613357544,1.7310248613357544
193,0.9639999866485596,0.113704614341259,0.113704614341259,0.000125,0.35333332419395447,1.7299984693527222,1.7299984693527222
194,0.9639999866485596,0.11350803822278976,0.11350803822278976,0.000125,0.35333332419395447,1.7293026447296143,1.7293026447296143
195,0.9639999866485596,0.11332020163536072,0.11332020163536072,0.000125,0.35333332419395447,1.728110671043396,1.728110671043396
196,0.9639999866485596,0.11310223489999771,0.11310223489999771,0.000125,0.35333332419395447,1.7270044088363647,1.7270044088363647
197,0.9639999866485596,0.11289899051189423,0.11289899051189423,0.000125,0.35333332419395447,1.7260345220565796,1.7260345220565796
198,0.9639999866485596,0.1126963198184967,0.1126963198184967,0.000125,0.35333332419395447,1.724767804145813,1.724767804145813
199,0.9639999866485596,0.11250453442335129,0.11250453442335129,0.000125,0.35333332419395447,1.723734974861145,1.723734974861145
200,0.9639999866485596,0.11229062080383301,0.11229062080383301,0.000125,0.35333332419395447,1.7226746082305908,1.7226746082305908
201,0.9639999866485596,0.11208862066268921,0.11208862066268921,0.000125,0.35333332419395447,1.7214230298995972,1.7214230298995972
202,0.9660000205039978,0.11188866943120956,0.11188866943120956,0.000125,0.35333332419395447,1.7202259302139282,1.7202259302139282
203,0.9660000205039978,0.11167456954717636,0.11167456954717636,0.000125,0.35333332419395447,1.718843698501587,1.718843698501587
204,0.9639999866485596,0.11147449165582657,0.11147449165582657,0.000125,0.35333332419395447,1.7173707485198975,1.7173707485198975
205,0.9660000205039978,0.11128289997577667,0.11128289997577667,0.000125,0.35333332419395447,1.7163389921188354,1.7163389921188354
206,0.9660000205039978,0.11107484996318817,0.11107484996318817,0.000125,0.35333332419395447,1.714902400970459,1.714902400970459
207,0.9660000205039978,0.1108587384223938,0.1108587384223938,0.000125,0.35333332419395447,1.7136210203170776,1.7136210203170776
208,0.9660000205039978,0.11066366732120514,0.11066366732120514,0.000125,0.35333332419395447,1.7123929262161255,1.7123929262161255
209,0.9639999866485596,0.11046065390110016,0.11046065390110016,0.000125,0.35333332419395447,1.7106339931488037,1.7106339931488037
210,0.9660000205039978,0.11026264727115631,0.11026264727115631,0.000125,0.35333332419395447,1.7092649936676025,1.7092649936676025
211,0.9660000205039978,0.11003012955188751,0.11003012955188751,0.000125,0.35333332419395447,1.7079851627349854,1.7079851627349854
212,0.9660000205039978,0.1098257452249527,0.1098257452249527,0.000125,0.35333332419395447,1.706606388092041,1.706606388092041
213,0.9660000205039978,0.10962381213903427,0.10962381213903427,0.000125,0.35333332419395447,1.7053778171539307,1.7053778171539307
214,0.9660000205039978,0.10944344103336334,0.10944344103336334,0.000125,0.35333332419395447,1.7038307189941406,1.703830599784851
215,0.9660000205039978,0.1092410758137703,0.1092410758137703,0.000125,0.35333332419395447,1.7027666568756104,1.7027666568756104
216,0.9639999866485596,0.10903741419315338,0.10903741419315338,0.000125,0.35333332419395447,1.7010135650634766,1.7010135650634766
217,0.9660000205039978,0.10880675166845322,0.10880675166845322,0.000125,0.35333332419395447,1.699545979499817,1.699545979499817
218,0.9660000205039978,0.10859311372041702,0.10859311372041702,0.000125,0.35333332419395447,1.698282241821289,1.698282241821289
219,0.9660000205039978,0.10841343551874161,0.10841343551874161,0.000125,0.35333332419395447,1.6964143514633179,1.6964143514633179
220,0.9660000205039978,0.10821323841810226,0.10821323841810226,0.000125,0.35333332419395447,1.695122241973877,1.695122241973877
221,0.9660000205039978,0.10797902941703796,0.10797902941703796,0.000125,0.35333332419395447,1.6934095621109009,1.6934095621109009
222,0.9679999947547913,0.10776511579751968,0.10776511579751968,0.000125,0.35333332419395447,1.6916643381118774,1.6916643381118774
223,0.9660000205039978,0.10753701627254486,0.10753701627254486,0.000125,0.35333332419395447,1.6901146173477173,1.6901146173477173
224,0.9660000205039978,0.10734070092439651,0.10734070092439651,1e-04,0.35333332419395447,1.688645362854004,1.688645362854004
225,0.9679999947547913,0.10716160386800766,0.10716160386800766,1e-04,0.35333332419395447,1.6875375509262085,1.6875375509262085
226,0.9679999947547913,0.10697922855615616,0.10697922855615616,1e-04,0.35333332419395447,1.6862605810165405,1.6862605810165405
227,0.9679999947547913,0.1068219244480133,0.1068219244480133,1e-04,0.35333332419395447,1.6847280263900757,1.6847280263900757
228,0.9679999947547913,0.1066499799489975,0.1066499799489975,1e-04,0.35333332419395447,1.683674931526184,1.683674931526184
229,0.9679999947547913,0.10646754503250122,0.10646754503250122,1e-04,0.35333332419395447,1.682218074798584,1.682218074798584
230,0.9679999947547913,0.10628679394721985,0.10628679394721985,1e-04,0.35333332419395447,1.68056058883667,1.68056058883667
231,0.9679999947547913,0.10612566769123077,0.10612566769123077,1e-04,0.35333332419395447,1.6791796684265137,1.6791796684265137
232,0.9679999947547913,0.10593602061271667,0.10593602061271667,1e-04,0.35333332419395447,1.6775898933410645,1.6775898933410645
233,0.9679999947547913,0.10576626658439636,0.10576626658439636,1e-04,0.35333332419395447,1.6760650873184204,1.6760650873184204
234,0.9679999947547913,0.10558188706636429,0.10558188706636429,1e-04,0.35333332419395447,1.6743793487548828,1.6743793487548828
235,0.9679999947547913,0.10540656745433807,0.10540656745433807,1e-04,0.35333332419395447,1.6729011535644531,1.6729011535644531
236,0.9679999947547913,0.10523508489131927,0.10523508489131927,1e-04,0.35333332419395447,1.671355128288269,1.671355128288269
237,0.9679999947547913,0.10504943132400513,0.10504943132400513,1e-04,0.35333332419395447,1.669679045677185,1.669679045677185
238,0.9679999947547913,0.10487862676382065,0.10487862676382065,1e-04,0.35333332419395447,1.6683164834976196,1.6683164834976196
239,0.9679999947547913,0.10469597578048706,0.10469597578048706,1e-04,0.35333332419395447,1.6666568517684937,1.6666568517684937
240,0.9679999947547913,0.10452506691217422,0.10452506691217422,1e-04,0.35333332419395447,1.6652098894119263,1.6652098894119263
241,0.9679999947547913,0.10435821115970612,0.10435821115970612,1e-04,0.35333332419395447,1.6634587049484253,1.6634587049484253
242,0.9679999947547913,0.10417202860116959,0.10417202860116959,1e-04,0.35333332419395447,1.6618766784667969,1.6618766784667969
243,0.9679999947547913,0.10399327427148819,0.10399327427148819,1e-04,0.35333332419395447,1.6599429845809937,1.6599429845809937
244,0.9679999947547913,0.10383659601211548,0.10383659601211548,1e-04,0.35333332419395447,1.6585543155670166,1.6585543155670166
245,0.9679999947547913,0.10365866869688034,0.10365866869688034,1e-04,0.35333332419395447,1.656363606452942,1.656363606452942
246,0.9679999947547913,0.1034901961684227,0.1034901961684227,1e-04,0.35333332419395447,1.6549259424209595,1.6549259424209595
247,0.9679999947547913,0.10334864258766174,0.10334864258766174,1e-04,0.35333332419395447,1.6525628566741943,1.6525628566741943
248,0.9679999947547913,0.10314729064702988,0.10314729064702988,1e-04,0.35333332419395447,1.6510947942733765,1.6510947942733765
249,0.9679999947547913,0.10296889394521713,0.10296889394521713,1e-04,0.35333332419395447,1.6491025686264038,1.6491025686264038
250,0.9679999947547913,0.1027587279677391,0.1027587279677391,1e-04,0.35333332419395447,1.6467843055725098,1.6467843055725098
251,0.9679999947547913,0.10262998193502426,0.10262998193502426,1e-04,0.35333332419395447,1.6456788778305054,1.6456788778305054
252,0.9679999947547913,0.10246825963258743,0.10246825963258743,1e-04,0.35333332419395447,1.6431909799575806,1.6431909799575806
253,0.9679999947547913,0.10232583433389664,0.10232583433389664,1e-04,0.35333332419395447,1.64250648021698,1.64250648021698
254,0.9679999947547913,0.10213298350572586,0.10213298350572586,1e-04,0.35333332419395447,1.6402713060379028,1.6402713060379028
255,0.9679999947547913,0.10189054161310196,0.10189054161310196,1e-04,0.35333332419395447,1.6389613151550293,1.6389613151550293
256,0.9679999947547913,0.1017112284898758,0.1017112284898758,1e-04,0.35333332419395447,1.6370457410812378,1.6370457410812378
257,0.9679999947547913,0.1015043556690216,0.1015043556690216,1e-04,0.35333332419395447,1.634873867034912,1.634873867034912
258,0.9679999947547913,0.10135211050510406,0.10135211050510406,1e-04,0.35333332419395447,1.633679986000061,1.633679986000061
259,0.9679999947547913,0.10117854923009872,0.10117854923009872,1e-04,0.35333332419395447,1.6312520503997803,1.6312520503997803
260,0.9679999947547913,0.10104969143867493,0.10104969143867493,1e-04,0.35333332419395447,1.6302350759506226,1.6302350759506226
261,0.9679999947547913,0.10089350491762161,0.10089350491762161,1e-04,0.35333332419395447,1.6274394989013672,1.6274394989013672
262,0.9679999947547913,0.1007169708609581,0.1007169708609581,1e-04,0.35333332419395447,1.626596450805664,1.626596450805664
263,0.9679999947547913,0.10049369931221008,0.10049369931221008,1e-04,0.35333332419395447,1.6241527795791626,1.6241527795791626
264,0.9679999947547913,0.10028339922428131,0.10028339922428131,1e-04,0.35333332419395447,1.6223406791687012,1.6223406791687012
265,0.9679999947547913,0.10010621696710587,0.10010621696710587,1e-04,0.35333332419395447,1.6202296018600464,1.6202296018600464
266,0.9679999947547913,0.0999273881316185,0.0999273881316185,1e-04,0.35333332419395447,1.618510365486145,1.618510365486145
267,0.9679999947547913,0.0997595340013504,0.0997595340013504,1e-04,0.35333332419395447,1.616277813911438,1.616277813911438
268,0.9679999947547913,0.09957282990217209,0.09957282990217209,1e-04,0.35333332419395447,1.6144509315490723,1.6144509315490723
269,0.9679999947547913,0.09938523173332214,0.09938523173332214,1e-04,0.35333332419395447,1.612936019897461,1.612936019897461
270,0.9679999947547913,0.09922628849744797,0.09922628849744797,1e-04,0.35333332419395447,1.6109261512756348,1.6109261512756348
271,0.9679999947547913,0.09901714324951172,0.09901714324951172,1e-04,0.35333332419395447,1.6091641187667847,1.6091641187667847
272,0.9679999947547913,0.09887494146823883,0.09887494146823883,1e-04,0.35333332419395447,1.6069116592407227,1.6069116592407227
273,0.9679999947547913,0.09871939569711685,0.09871939569711685,1e-04,0.35333332419395447,1.6059659719467163,1.6059659719467163
274,0.9679999947547913,0.09861288964748383,0.09861288964748383,1e-04,0.35333332419395447,1.6023143529891968,1.6023143529891968
275,0.9700000286102295,0.09860459715127945,0.09860459715127945,1e-04,0.35333332419395447,1.6026068925857544,1.6026068925857544
276,0.9679999947547913,0.09845907241106033,0.09845907241106033,1e-04,0.35333332419395447,1.5991661548614502,1.5991661548614502
277,0.9700000286102295,0.0982147753238678,0.0982147753238678,1e-04,0.35333332419395447,1.5986273288726807,1.5986273288726807
278,0.9700000286102295,0.0978425145149231,0.0978425145149231,1e-04,0.35333332419395447,1.5961757898330688,1.5961757898330688
279,0.9700000286102295,0.09761215001344681,0.09761215001344681,1e-04,0.35333332419395447,1.594253420829773,1.594253420829773
280,0.9700000286102295,0.09746215492486954,0.09746215492486954,1e-04,0.35333332419395447,1.5938992500305176,1.5938992500305176
281,0.9700000286102295,0.09750394523143768,0.09750394523143768,1e-04,0.35333332419395447,1.5897092819213867,1.5897092819213867
282,0.9700000286102295,0.09750919789075851,0.09750919789075851,1e-04,0.35333332419395447,1.5905767679214478,1.5905767679214478
283,0.9700000286102295,0.09726350754499435,0.09726350754499435,1e-04,0.35333332419395447,1.587768316268921,1.587768316268921
284,0.9700000286102295,0.0968114361166954,0.0968114361166954,1e-04,0.35333332419395447,1.5870403051376343,1.5870403051376343
285,0.9700000286102295,0.09654790163040161,0.09654790163040161,1e-04,0.35333332419395447,1.5864094495773315,1.5864094495773315
286,0.9700000286102295,0.09658209979534149,0.09658209979534149,1e-04,0.35333332419395447,1.5823655128479004,1.5823655128479004
287,0.9700000286102295,0.09657793492078781,0.09657793492078781,1e-04,0.35333332419395447,1.5830857753753662,1.5830857753753662
288,0.9700000286102295,0.09635195136070251,0.09635195136070251,1e-04,0.35333332419395447,1.5795882940292358,1.5795882940292358
289,0.9700000286102295,0.09593496471643448,0.09593496471643448,1e-04,0.35333332419395447,1.5786687135696411,1.5786687135696411
290,0.9700000286102295,0.09568524360656738,0.09568524360656738,1e-04,0.35333332419395447,1.5780022144317627,1.5780022144317627
291,0.9700000286102295,0.09560032188892365,0.09560032188892365,1e-04,0.35333332419395447,1.5748097896575928,1.5748097896575928
292,0.9700000286102295,0.09549809247255325,0.09549809247255325,1e-04,0.35333332419395447,1.5753507614135742,1.5753507614135742
293,0.9700000286102295,0.0954514741897583,0.0954514741897583,1e-04,0.35333332419395447,1.5719165802001953,1.5719165802001953
294,0.9700000286102295,0.09516232460737228,0.09516232460737228,1e-04,0.35333332419395447,1.5723273754119873,1.5723273754119873
295,0.9700000286102295,0.09488186985254288,0.09488186985254288,1e-04,0.35333332419395447,1.569848895072937,1.569848895072937
296,0.9700000286102295,0.09459462016820908,0.09459462016820908,1e-04,0.35333332419395447,1.5680509805679321,1.5680509805679321
297,0.9700000286102295,0.09443912655115128,0.09443912655115128,1e-04,0.35333332419395447,1.5678702592849731,1.5678702592849731
298,0.9700000286102295,0.09445200860500336,0.09445200860500336,1e-04,0.3535555601119995,1.563427209854126,1.563427209854126
299,0.9700000286102295,0.09448149055242538,0.09448149055242538,1e-04,0.3535555601119995,1.5641313791275024,1.5641313791275024
300,0.9700000286102295,0.09431657940149307,0.09431657940149307,1e-04,0.3535555601119995,1.559783697128296,1.559783697128296
301,0.9700000286102295,0.09392177313566208,0.09392177313566208,1e-04,0.3535555601119995,1.5591751337051392,1.5591751337051392
302,0.9700000286102295,0.09352602809667587,0.09352602809667587,1e-04,0.3535555601119995,1.5587501525878906,1.558750033378601
303,0.9700000286102295,0.09356352686882019,0.09356352686882019,1e-04,0.3535555601119995,1.5545306205749512,1.5545306205749512
304,0.9700000286102295,0.09362121671438217,0.09362121671438217,1e-04,0.35333332419395447,1.555564045906067,1.555564045906067
305,0.9700000286102295,0.09339012950658798,0.09339012950658798,1e-04,0.3535555601119995,1.5512703657150269,1.5512703657150269
306,0.9700000286102295,0.09299395978450775,0.09299395978450775,1e-04,0.3535555601119995,1.5505480766296387,1.5505480766296387
307,0.9700000286102295,0.09269583970308304,0.09269583970308304,1e-04,0.3535555601119995,1.5488553047180176,1.5488553047180176
308,0.9700000286102295,0.09249874949455261,0.09249874949455261,1e-04,0.3535555601119995,1.5451818704605103,1.5451818704605103
309,0.9700000286102295,0.09247904270887375,0.09247904270887375,1e-04,0.3535555601119995,1.5455626249313354,1.5455626249313354
310,0.9700000286102295,0.09246879070997238,0.09246879070997238,1e-04,0.3535555601119995,1.5409647226333618,1.5409647226333618
311,0.9700000286102295,0.09211397916078568,0.09211397916078568,1e-04,0.3535555601119995,1.5410369634628296,1.5410369634628296
312,0.9700000286102295,0.09181542694568634,0.09181542694568634,1e-04,0.3535555601119995,1.5389384031295776,1.5389384031295776
313,0.9700000286102295,0.09155477583408356,0.09155477583408356,1e-04,0.3535555601119995,1.5369093418121338,1.5369093418121338
314,0.9700000286102295,0.09146852791309357,0.09146852791309357,1e-04,0.3535555601119995,1.5364928245544434,1.5364928245544434
315,0.9700000286102295,0.09136516600847244,0.09136516600847244,1e-04,0.3535555601119995,1.531502604484558,1.531502604484558
316,0.9700000286102295,0.09120557457208633,0.09120557457208633,1e-04,0.3535555601119995,1.531538963317871,1.531538963317871
317,0.9700000286102295,0.09102840721607208,0.09102840721607208,1e-04,0.35377776622772217,1.5278452634811401,1.5278452634811401
318,0.9700000286102295,0.09074253588914871,0.09074253588914871,1e-04,0.35377776622772217,1.5265032052993774,1.5265032052993774
319,0.9700000286102295,0.09054528921842575,0.09054528921842575,1e-04,0.35377776622772217,1.5246167182922363,1.5246167182922363
320,0.9700000286102295,0.09030909836292267,0.09030909836292267,1e-04,0.35422220826148987,1.5222088098526,1.5222088098526
321,0.9700000286102295,0.09018507599830627,0.09018507599830627,1e-04,0.35422220826148987,1.5215094089508057,1.5215094089508057
322,0.9700000286102295,0.09005627036094666,0.09005627036094666,1e-04,0.35422220826148987,1.5164947509765625,1.5164947509765625
323,0.9700000286102295,0.08995738625526428,0.08995738625526428,1e-04,0.35422220826148987,1.5174992084503174,1.5174992084503174
324,0.9700000286102295,0.08980054408311844,0.08980054408311844,1e-04,0.35422220826148987,1.513026475906372,1.513026475906372
325,0.9700000286102295,0.08962181955575943,0.08962181955575943,1e-04,0.35422220826148987,1.5129632949829102,1.5129632949829102
326,0.9700000286102295,0.08930806815624237,0.08930806815624237,1e-04,0.3548888862133026,1.5084525346755981,1.5084525346755981
327,0.9700000286102295,0.08910272270441055,0.08910272270441055,1e-04,0.35511112213134766,1.5079604387283325,1.5079604387283325
328,0.9700000286102295,0.08886856585741043,0.08886856585741043,1e-04,0.35511112213134766,1.504845380783081,1.504845380783081
329,0.9700000286102295,0.08866854012012482,0.08866854012012482,1e-04,0.3553333282470703,1.5038161277770996,1.5038161277770996
330,0.9700000286102295,0.08848483115434647,0.08848483115434647,1e-04,0.35555556416511536,1.50128972530365,1.50128972530365
331,0.9700000286102295,0.08830761164426804,0.08830761164426804,1e-04,0.355777770280838,1.5004032850265503,1.5004032850265503
332,0.9700000286102295,0.08817613869905472,0.08817613869905472,1e-04,0.35555556416511536,1.4957871437072754,1.4957871437072754
333,0.9700000286102295,0.08807957917451859,0.08807957917451859,1e-04,0.35555556416511536,1.4970324039459229,1.4970324039459229
334,0.9700000286102295,0.08807968348264694,0.08807968348264694,1e-04,0.355777770280838,1.4914379119873047,1.4914379119873047
335,0.9700000286102295,0.08805526047945023,0.08805526047945023,1e-04,0.355777770280838,1.4933565855026245,1.4933565855026245
336,0.9700000286102295,0.08769984543323517,0.08769984543323517,1e-04,0.3566666543483734,1.487206220626831,1.487206220626831
337,0.9700000286102295,0.08744405955076218,0.08744405955076218,1e-04,0.35644444823265076,1.487325668334961,1.487325668334961
338,0.9700000286102295,0.08709565550088882,0.08709565550088882,1e-04,0.35733333230018616,1.4838411808013916,1.4838411808013916
339,0.9700000286102295,0.08687583357095718,0.08687583357095718,1e-04,0.35733333230018616,1.482008457183838,1.482008457183838
340,0.9700000286102295,0.08664579689502716,0.08664579689502716,1e-04,0.3575555682182312,1.4789574146270752,1.4789574146270752
341,0.9700000286102295,0.08645898103713989,0.08645898103713989,1e-04,0.35777777433395386,1.4777674674987793,1.4777674674987793
342,0.972000002861023,0.08626720309257507,0.08626720309257507,1e-04,0.35777777433395386,1.4751360416412354,1.4751360416412354
343,0.972000002861023,0.08608172833919525,0.08608172833919525,1e-04,0.35777777433395386,1.4728927612304688,1.4728927612304688
344,0.972000002861023,0.08591554313898087,0.08591554313898087,1e-04,0.35777777433395386,1.4704091548919678,1.4704091548919678
345,0.972000002861023,0.08573982119560242,0.08573982119560242,1e-04,0.3580000102519989,1.4690746068954468,1.4690746068954468
346,0.9739999771118164,0.0856381356716156,0.0856381356716156,1e-04,0.35822221636772156,1.4625983238220215,1.4625983238220215
347,0.9700000286102295,0.08584465086460114,0.08584465086460114,1e-04,0.35822221636772156,1.466994047164917,1.466994047164917
348,0.9739999771118164,0.08630000054836273,0.08630000054836273,1e-04,0.35955554246902466,1.4580076932907104,1.4580076932907104
349,0.9700000286102295,0.08641788363456726,0.08641788363456726,1e-04,0.3588888943195343,1.462705135345459,1.462705135345459
350,0.9739999771118164,0.085381880402565,0.085381880402565,1e-04,0.3597777783870697,1.457991123199463,1.457991123199463
351,0.9739999771118164,0.08471590280532837,0.08471590280532837,1e-04,0.3597777783870697,1.452848196029663,1.452848196029663
352,0.972000002861023,0.08497827500104904,0.08497827500104904,1e-04,0.3602222204208374,1.4555199146270752,1.4555199146270752
353,0.9739999771118164,0.08541763573884964,0.08541763573884964,1e-04,0.36000001430511475,1.4457699060440063,1.4457699060440063
354,0.9700000286102295,0.08490699529647827,0.08490699529647827,1e-04,0.3602222204208374,1.4478981494903564,1.4478981494903564
355,0.9760000109672546,0.08402670174837112,0.08402670174837112,1e-04,0.36044445633888245,1.4464170932769775,1.4464170932769775
356,0.9760000109672546,0.08395498245954514,0.08395498245954514,1e-04,0.3611111044883728,1.4383842945098877,1.4383842945098877
357,0.972000002861023,0.08443272113800049,0.08443272113800049,1e-04,0.36088889837265015,1.442441701889038,1.442441701889038
358,0.9760000109672546,0.08421113342046738,0.08421113342046738,1e-04,0.36088889837265015,1.435851812362671,1.435851812362671
359,0.9760000109672546,0.08351429551839828,0.08351429551839828,1e-04,0.3611111044883728,1.4348701238632202,1.4348701238632202
360,0.9760000109672546,0.08308012783527374,0.08308012783527374,1e-04,0.36044445633888245,1.4350214004516602,1.4350214004516602
361,0.9760000109672546,0.08332383632659912,0.08332383632659912,1e-04,0.36222222447395325,1.4267934560775757,1.4267934560775757
362,0.9739999771118164,0.08350016176700592,0.08350016176700592,1e-04,0.36044445633888245,1.4306741952896118,1.4306741952896118
363,0.9760000109672546,0.08303304761648178,0.08303304761648178,1e-04,0.36133334040641785,1.4242641925811768,1.4242641925811768
364,0.9760000109672546,0.08241178095340729,0.08241178095340729,1e-04,0.3624444305896759,1.420778512954712,1.420778512954712
365,0.9760000109672546,0.08234472572803497,0.08234472572803497,1e-04,0.36088889837265015,1.4231173992156982,1.4231173992156982
366,0.9779999852180481,0.08259058743715286,0.08259058743715286,1e-04,0.36177778244018555,1.4152250289916992,1.4152250289916992
367,0.9739999771118164,0.0825236514210701,0.0825236514210701,1e-04,0.3606666624546051,1.4173545837402344,1.4173545837402344
368,0.9760000109672546,0.08198577165603638,0.08198577165603638,1e-04,0.36311110854148865,1.4114818572998047,1.4114818572998047
369,0.9779999852180481,0.08153370767831802,0.08153370767831802,1e-04,0.3637777864933014,1.4079042673110962,1.4079041481018066
370,0.9760000109672546,0.08143502473831177,0.08143502473831177,1e-04,0.36133334040641785,1.409737229347229,1.409737229347229
371,0.9779999852180481,0.08159411698579788,0.08159411698579788,1e-04,0.3642222285270691,1.4008629322052002,1.4008629322052002
372,0.9760000109672546,0.08155600726604462,0.08155600726604462,1e-04,0.36355555057525635,1.4019731283187866,1.4019731283187866
373,0.9779999852180481,0.08104249089956284,0.08104249089956284,1e-04,0.36311110854148865,1.3975613117218018,1.3975613117218018
374,0.9760000109672546,0.08065562695264816,0.08065562695264816,1e-04,0.36311110854148865,1.3959062099456787,1.3959062099456787
375,0.9779999852180481,0.08058604598045349,0.08058604598045349,1e-04,0.3624444305896759,1.3969618082046509,1.3969618082046509
376,0.9779999852180481,0.08059520274400711,0.08059520274400711,1e-04,0.3633333444595337,1.3864158391952515,1.3864158391952515
377,0.9760000109672546,0.08055229485034943,0.08055229485034943,1e-04,0.3624444305896759,1.3878084421157837,1.3878084421157837
378,0.9779999852180481,0.07999400049448013,0.07999400049448013,1e-04,0.3651111125946045,1.3842061758041382,1.3842061758041382
379,0.9779999852180481,0.0796516090631485,0.0796516090631485,1e-04,0.3655555546283722,1.379679799079895,1.379679799079895
380,0.9760000109672546,0.0796908289194107,0.0796908289194107,1e-04,0.36266666650772095,1.3815902471542358,1.3815902471542358
381,0.9779999852180481,0.07962040603160858,0.07962040603160858,1e-04,0.36622223258018494,1.3721773624420166,1.3721773624420166
382,0.9760000109672546,0.0793648287653923,0.0793648287653923,1e-04,0.36666667461395264,1.3711655139923096,1.3711655139923096
383,0.9779999852180481,0.0790957659482956,0.0790957659482956,1e-04,0.3682222366333008,1.3674792051315308,1.3674792051315308
384,0.9779999852180481,0.07897619158029556,0.07897619158029556,1e-04,0.3659999966621399,1.3672373294830322,1.3672373294830322
385,0.9779999852180481,0.07866586744785309,0.07866586744785309,1e-04,0.36888888478279114,1.3626803159713745,1.3626803159713745
386,0.9779999852180481,0.07831928133964539,0.07831928133964539,1e-04,0.3700000047683716,1.358559489250183,1.358559489250183
387,0.9779999852180481,0.07839462906122208,0.07839462906122208,1e-04,0.3704444468021393,1.3541805744171143,1.3541805744171143
388,0.9779999852180481,0.07810857892036438,0.07810857892036438,1e-04,0.3720000088214874,1.3505864143371582,1.3505865335464478
389,0.9779999852180481,0.07794839143753052,0.07794839143753052,1e-04,0.3713333308696747,1.3504612445831299,1.3504612445831299
390,0.9779999852180481,0.07782559096813202,0.07782559096813202,1e-04,0.37444445490837097,1.3415087461471558,1.3415087461471558
391,0.9779999852180481,0.07795144617557526,0.07795144617557526,1e-04,0.3717777729034424,1.345685362815857,1.345685362815857
392,0.9779999852180481,0.07769351452589035,0.07769351452589035,1e-04,0.37400001287460327,1.335141897201538,1.335141897201538
393,0.9779999852180481,0.07751419395208359,0.07751419395208359,1e-04,0.3737777769565582,1.3360105752944946,1.3360105752944946
394,0.9779999852180481,0.0773075595498085,0.0773075595498085,1e-04,0.38155555725097656,1.3309509754180908,1.3309509754180908
395,0.9779999852180481,0.0770004391670227,0.0770004391670227,1e-04,0.37599998712539673,1.330932855606079,1.330932855606079
396,0.9779999852180481,0.0767277181148529,0.0767277181148529,1e-04,0.38244444131851196,1.3201301097869873,1.3201301097869873
397,0.9779999852180481,0.07649210840463638,0.07649210840463638,1e-04,0.3844444453716278,1.320066213607788,1.320066213607788
398,0.9779999852180481,0.07627233117818832,0.07627233117818832,1e-04,0.3888888955116272,1.3162931203842163,1.3162931203842163
399,0.9779999852180481,0.0762188583612442,0.0762188583612442,1e-04,0.38644444942474365,1.3177919387817383,1.3177919387817383
400,0.9779999852180481,0.0758470967411995,0.0758470967411995,1e-04,0.39177778363227844,1.3087888956069946,1.3087888956069946
401,0.9779999852180481,0.07584591954946518,0.07584591954946518,1e-04,0.3897777795791626,1.309128761291504,1.309128761291504
402,0.9779999852180481,0.07585460692644119,0.07585460692644119,1e-04,0.3995555639266968,1.3032819032669067,1.3032819032669067
403,0.9779999852180481,0.07591281831264496,0.07591281831264496,1e-04,0.39088889956474304,1.3073134422302246,1.3073134422302246
404,0.9779999852180481,0.07582937180995941,0.07582937180995941,1e-04,0.4013333320617676,1.2930351495742798,1.2930351495742798
405,0.9779999852180481,0.07574011385440826,0.07574011385440826,1e-04,0.39844444394111633,1.296890139579773,1.296890139579773
406,0.9779999852180481,0.07511179894208908,0.07511179894208908,1e-04,0.41333332657814026,1.2860758304595947,1.2860758304595947
407,0.9779999852180481,0.07460104674100876,0.07460104674100876,1e-04,0.414000004529953,1.2816487550735474,1.2816487550735474
408,0.9779999852180481,0.07442077994346619,0.07442077994346619,1e-04,0.4126666784286499,1.2802464962005615,1.2802464962005615
409,0.9800000190734863,0.07424085587263107,0.07424085587263107,1e-04,0.41644445061683655,1.2713871002197266,1.2713871002197266
410,0.9779999852180481,0.07411449402570724,0.07411449402570724,1e-04,0.414000004529953,1.2735415697097778,1.2735415697097778
411,0.9779999852180481,0.07427023351192474,0.07427023351192474,1e-04,0.4308888912200928,1.262733817100525,1.262733817100525
412,0.9779999852180481,0.07460963726043701,0.07460963726043701,1e-04,0.4206666648387909,1.2685620784759521,1.2685620784759521
413,0.9800000190734863,0.0743844211101532,0.0743844211101532,1e-04,0.42844444513320923,1.2547603845596313,1.2547603845596313
414,0.9779999852180481,0.07390236109495163,0.07390236109495163,1e-04,0.4317777752876282,1.2559274435043335,1.2559274435043335
415,0.9800000190734863,0.07323695719242096,0.07323695719242096,1e-04,0.4431111216545105,1.246953010559082,1.246953010559082
416,0.9800000190734863,0.0730416402220726,0.0730416402220726,1e-04,0.4546666741371155,1.2335529327392578,1.2335529327392578
417,0.9779999852180481,0.07365833967924118,0.07365833967924118,1e-04,0.4315555691719055,1.2465548515319824,1.2465548515319824
418,0.9800000190734863,0.07395821064710617,0.07395821064710617,1e-04,0.445333331823349,1.2329844236373901,1.2329844236373901
419,0.9779999852180481,0.07364553213119507,0.07364553213119507,1e-04,0.4502222239971161,1.2299047708511353,1.2299047708511353
420,0.9800000190734863,0.07253413647413254,0.07253413647413254,1e-04,0.4695555567741394,1.2189966440200806,1.2189967632293701
421,0.9800000190734863,0.07220730930566788,0.07220730930566788,1e-04,0.47377777099609375,1.209472417831421,1.209472417831421
422,0.9800000190734863,0.0724777802824974,0.0724777802824974,1e-04,0.45044443011283875,1.21908700466156,1.21908700466156
423,0.9800000190734863,0.07256695628166199,0.07256695628166199,1e-04,0.4677777886390686,1.2046853303909302,1.2046853303909302
424,0.9800000190734863,0.07222472876310349,0.07222472876310349,1e-04,0.4744444489479065,1.2008775472640991,1.2008775472640991
425,0.9800000190734863,0.07151158899068832,0.07151158899068832,1e-04,0.49000000953674316,1.1933295726776123,1.1933295726776123
426,0.9800000190734863,0.07124371826648712,0.07124371826648712,1e-04,0.49311110377311707,1.1850340366363525,1.1850340366363525
427,0.9800000190734863,0.07130350917577744,0.07130350917577744,1e-04,0.4726666808128357,1.1891984939575195,1.1891984939575195
428,0.9800000190734863,0.07161416858434677,0.07161416858434677,1e-04,0.5004444718360901,1.1766290664672852,1.1766290664672852
429,0.9800000190734863,0.07154644280672073,0.07154644280672073,1e-04,0.4942222237586975,1.1779155731201172,1.1779155731201172
430,0.9800000190734863,0.0708271786570549,0.0708271786570549,1e-04,0.5097777843475342,1.1647979021072388,1.1647979021072388
431,0.9779999852180481,0.07054078578948975,0.07054078578948975,1e-04,0.5155555605888367,1.1616623401641846,1.1616623401641846
432,0.9800000190734863,0.07020790129899979,0.07020790129899979,1e-04,0.5097777843475342,1.1594843864440918,1.1594843864440918
433,0.9800000190734863,0.07023245841264725,0.07023245841264725,1e-04,0.5328888893127441,1.1475815773010254,1.1475815773010254
434,0.9800000190734863,0.07031860202550888,0.07031860202550888,1e-04,0.524222195148468,1.1505825519561768,1.1505825519561768
435,0.9800000190734863,0.07003942131996155,0.07003942131996155,1e-04,0.5448889136314392,1.136009931564331,1.136009931564331
436,0.9800000190734863,0.06984755396842957,0.06984755396842957,1e-04,0.5448889136314392,1.1323153972625732,1.1323153972625732
437,0.9800000190734863,0.06939135491847992,0.06939135491847992,1e-04,0.5575555562973022,1.1290663480758667,1.1290663480758667
438,0.9800000190734863,0.06917867809534073,0.06917867809534073,1e-04,0.554888904094696,1.1259326934814453,1.1259326934814453
439,0.9800000190734863,0.06895667314529419,0.06895667314529419,1e-04,0.5724444389343262,1.1162687540054321,1.1162687540054321
440,0.9800000190734863,0.06873961538076401,0.06873961538076401,1e-04,0.5993333458900452,1.1039551496505737,1.1039551496505737
441,0.9800000190734863,0.06874163448810577,0.06874163448810577,1e-04,0.5755555629730225,1.1062573194503784,1.1062573194503784
442,0.9800000190734863,0.06864889711141586,0.06864889711141586,1e-04,0.5995555520057678,1.0993272066116333,1.0993272066116333
443,0.9800000190734863,0.06860152631998062,0.06860152631998062,1e-04,0.5897777676582336,1.0978121757507324,1.0978121757507324
444,0.9800000190734863,0.06856410205364227,0.06856410205364227,1e-04,0.6233333349227905,1.0829812288284302,1.0829812288284302
445,0.9800000190734863,0.06844833493232727,0.06844833493232727,1e-04,0.6053333282470703,1.0880523920059204,1.0880523920059204
446,0.9800000190734863,0.06833973526954651,0.06833973526954651,1e-04,0.6460000276565552,1.0700416564941406,1.0700416564941406
447,0.9800000190734863,0.06818204373121262,0.06818204373121262,1e-04,0.6337777972221375,1.0684572458267212,1.0684572458267212
448,0.9800000190734863,0.06783334910869598,0.06783334910869598,1e-04,0.6715555787086487,1.0579514503479004,1.0579514503479004
449,0.9800000190734863,0.06755256652832031,0.06755256652832031,1e-04,0.6695555448532104,1.053780436515808,1.053780436515808
450,0.9800000190734863,0.06711568683385849,0.06711568683385849,1e-04,0.6811110973358154,1.0448094606399536,1.0448094606399536
451,0.9800000190734863,0.06686074286699295,0.06686074286699295,1e-04,0.6811110973358154,1.0401268005371094,1.0401268005371094
452,0.9800000190734863,0.06675495952367783,0.06675495952367783,1e-04,0.6851111054420471,1.0370432138442993,1.0370432138442993
453,0.9800000190734863,0.06655313074588776,0.06655313074588776,1e-04,0.714888870716095,1.0244733095169067,1.0244733095169067
454,0.9800000190734863,0.06663929671049118,0.06663929671049118,1e-04,0.6995555758476257,1.0227924585342407,1.0227924585342407
455,0.9819999933242798,0.06660458445549011,0.06660458445549011,1e-04,0.7317777872085571,1.0111796855926514,1.0111796855926514
456,0.9800000190734863,0.06686311960220337,0.06686311960220337,1e-04,0.7048888802528381,1.0188473463058472,1.0188473463058472
457,0.9819999933242798,0.06692665815353394,0.06692665815353394,1e-04,0.7468888759613037,1.0016214847564697,1.0016214847564697
458,0.9800000190734863,0.06681641936302185,0.06681641936302185,1e-04,0.7351111173629761,1.0025867223739624,1.0025867223739624
459,0.9819999933242798,0.06608910858631134,0.06608910858631134,1e-04,0.7673333287239075,0.9879468083381653,0.9879468083381653
460,0.9819999933242798,0.06557376682758331,0.06557376682758331,1e-04,0.7680000066757202,0.981637179851532,0.981637179851532
461,0.9819999933242798,0.0652245432138443,0.0652245432138443,1e-04,0.7588889002799988,0.9834103584289551,0.9834103584289551
462,0.9819999933242798,0.06542376428842545,0.06542376428842545,1e-04,0.7877777814865112,0.9696240425109863,0.9696240425109863
463,0.9800000190734863,0.06597235053777695,0.06597235053777695,1e-04,0.765999972820282,0.9711775183677673,0.9711775183677673
464,0.9819999933242798,0.06625039130449295,0.06625039130449295,1e-04,0.8031111359596252,0.9519155025482178,0.9519155025482178
465,0.9800000190734863,0.06548423320055008,0.06548423320055008,1e-04,0.8004444241523743,0.9540562033653259,0.9540562033653259
466,0.9819999933242798,0.0645441859960556,0.0645441859960556,1e-04,0.808222234249115,0.9500290751457214,0.9500290751457214
467,0.9819999933242798,0.0643019750714302,0.0643019750714302,1e-04,0.8202221989631653,0.9378467798233032,0.9378467798233032
468,0.9819999933242798,0.06458158791065216,0.06458158791065216,1e-04,0.801111102104187,0.9357200264930725,0.9357200264930725
469,0.9819999933242798,0.06489440053701401,0.06489440053701401,1e-04,0.8299999833106995,0.9192540049552917,0.9192540049552917
470,0.9819999933242798,0.06478098034858704,0.06478098034858704,1e-04,0.824222207069397,0.9221310615539551,0.9221310615539551
471,0.9819999933242798,0.06404184550046921,0.06404184550046921,1e-04,0.8388888835906982,0.9108170866966248,0.9108170866966248
472,0.9819999933242798,0.06352026015520096,0.06352026015520096,1e-04,0.8404444456100464,0.9034265875816345,0.9034265875816345
473,0.9819999933242798,0.06336401402950287,0.06336401402950287,1e-04,0.8282222151756287,0.9040065407752991,0.9040065407752991
474,0.9819999933242798,0.06347333639860153,0.06347333639860153,1e-04,0.8451111316680908,0.8915124535560608,0.8915124535560608
475,0.9819999933242798,0.06373566389083862,0.06373566389083862,1e-04,0.8411111235618591,0.8890869617462158,0.8890869617462158
476,0.9819999933242798,0.06365013122558594,0.06365013122558594,1e-04,0.8537777662277222,0.8775782585144043,0.8775782585144043
477,0.9819999933242798,0.06318303942680359,0.06318303942680359,1e-04,0.8424444198608398,0.8804470300674438,0.8804470300674438
478,0.9819999933242798,0.06280002743005753,0.06280002743005753,1e-04,0.8542222380638123,0.8672439455986023,0.8672439455986023
479,0.9819999933242798,0.062322404235601425,0.062322404235601425,1e-04,0.859333336353302,0.851902425289154,0.851902425289154
480,0.9819999933242798,0.062267713248729706,0.062267713248729706,1e-04,0.8491111397743225,0.8564071655273438,0.8564071655273438
481,0.9819999933242798,0.062298499047756195,0.062298499047756195,1e-04,0.852222204208374,0.8515785932540894,0.8515785932540894
482,0.9819999933242798,0.06261103600263596,0.06261103600263596,1e-04,0.8475555777549744,0.8451120257377625,0.8451120257377625
483,0.9819999933242798,0.06277762353420258,0.06277762353420258,1e-04,0.8686666488647461,0.8233163952827454,0.8233163952827454
484,0.9819999933242798,0.06211404129862785,0.06211404129862785,1e-04,0.8586666584014893,0.8287830948829651,0.8287830948829651
485,0.9819999933242798,0.061501480638980865,0.061501480638980865,1e-04,0.8562222123146057,0.8235908150672913,0.8235908150672913
486,0.9819999933242798,0.0611875019967556,0.0611875019967556,1e-04,0.862666666507721,0.8125706911087036,0.8125706911087036
487,0.9819999933242798,0.06127235293388367,0.06127235293388367,1e-04,0.8595555424690247,0.8086318373680115,0.8086318373680115
488,0.9819999933242798,0.06155363470315933,0.06155363470315933,1e-04,0.8722222447395325,0.7928307056427002,0.7928307056427002
489,0.9819999933242798,0.06178012862801552,0.06178012862801552,1e-04,0.8579999804496765,0.8002995848655701,0.8002995848655701
490,0.9819999933242798,0.06158708408474922,0.06158708408474922,1e-04,0.8695555329322815,0.7850700616836548,0.7850700616836548
491,0.9819999933242798,0.06095347926020622,0.06095347926020622,1e-04,0.8728888630867004,0.7799040079116821,0.7799040079116821
492,0.9819999933242798,0.060207828879356384,0.060207828879356384,1e-04,0.8777777552604675,0.7725334167480469,0.7725334167480469
493,0.9819999933242798,0.060334376990795135,0.060334376990795135,1e-04,0.8817777633666992,0.7534542679786682,0.7534542679786682
494,0.9819999933242798,0.06097634136676788,0.06097634136676788,1e-04,0.867111086845398,0.762951135635376,0.762951135635376
495,0.9819999933242798,0.06139666587114334,0.06139666587114334,1e-04,0.8788889050483704,0.7540002465248108,0.7540002465248108
496,0.9819999933242798,0.06047419086098671,0.06047419086098671,1e-04,0.8848888874053955,0.7488175630569458,0.7488175630569458
497,0.9819999933242798,0.05957673490047455,0.05957673490047455,1e-04,0.886222243309021,0.7339560389518738,0.7339560389518738
498,0.9819999933242798,0.059629663825035095,0.059629663825035095,1e-04,0.886222243309021,0.7200024127960205,0.7200024127960205
499,0.9819999933242798,0.0602089948952198,0.0602089948952198,1e-04,0.8782222270965576,0.7327380180358887,0.7327380180358887
500,0.9819999933242798,0.06033175066113472,0.06033175066113472,1e-04,0.8882222175598145,0.7185782194137573,0.7185782194137573
501,0.9819999933242798,0.059413786977529526,0.059413786977529526,1e-04,0.8902222514152527,0.7101818919181824,0.7101818919181824
502,0.9819999933242798,0.05876719579100609,0.05876719579100609,1e-04,0.8899999856948853,0.7084643244743347,0.7084643244743347
503,0.9819999933242798,0.058667294681072235,0.058667294681072235,1e-04,0.8886666893959045,0.6961917877197266,0.6961917877197266
504,0.9819999933242798,0.05870934948325157,0.05870934948325157,1e-04,0.8882222175598145,0.6949861645698547,0.6949861645698547
505,0.9819999933242798,0.058801133185625076,0.058801133185625076,1e-04,0.8980000019073486,0.6833156943321228,0.6833156943321228
506,0.9819999933242798,0.05876033753156662,0.05876033753156662,1e-04,0.8955555558204651,0.6761090755462646,0.6761090755462646
507,0.984000027179718,0.058164164423942566,0.058164164423942566,1e-04,0.8955555558204651,0.6743553876876831,0.6743553876876831
508,0.9860000014305115,0.057707130908966064,0.057707130908966064,1e-04,0.8975555300712585,0.6676047444343567,0.6676047444343567
509,0.9819999933242798,0.057821206748485565,0.057821206748485565,1e-04,0.8946666717529297,0.6593460440635681,0.6593460440635681
510,0.9819999933242798,0.0582948736846447,0.0582948736846447,1e-04,0.9008888602256775,0.6545950770378113,0.6545950770378113
511,0.9860000014305115,0.058015476912260056,0.058015476912260056,1e-04,0.897777795791626,0.657562792301178,0.657562792301178
512,0.9860000014305115,0.05761759728193283,0.05761759728193283,1e-04,0.9002222418785095,0.642255961894989,0.642255961894989
513,0.9819999933242798,0.057464078068733215,0.057464078068733215,1e-04,0.9015555381774902,0.6455262303352356,0.6455262303352356
514,0.9860000014305115,0.05695886164903641,0.05695886164903641,1e-04,0.9015555381774902,0.6326704621315002,0.6326704621315002
515,0.9860000014305115,0.05667627602815628,0.05667627602815628,1e-04,0.903333306312561,0.6249175071716309,0.6249175071716309
516,0.984000027179718,0.05674556642770767,0.05674556642770767,1e-04,0.9015555381774902,0.6320506930351257,0.6320506930351257
517,0.9860000014305115,0.056864432990550995,0.056864432990550995,1e-04,0.9024444222450256,0.615834653377533,0.615834653377533
518,0.9860000014305115,0.056988514959812164,0.056988514959812164,1e-04,0.9020000100135803,0.6154425740242004,0.6154425740242004
519,0.9860000014305115,0.056613948196172714,0.056613948196172714,1e-04,0.9055555462837219,0.604478657245636,0.604478657245636
520,0.9860000014305115,0.05650314316153526,0.05650314316153526,1e-04,0.9031111001968384,0.5987352132797241,0.5987352132797241
521,0.9860000014305115,0.056223977357149124,0.056223977357149124,1e-04,0.9057777523994446,0.6035085320472717,0.6035085320472717
522,0.9860000014305115,0.055601660162210464,0.055601660162210464,1e-04,0.9053333401679993,0.5979436039924622,0.5979436039924622
523,0.9860000014305115,0.055379729717969894,0.055379729717969894,1e-04,0.9035555720329285,0.5852480530738831,0.5852480530738831
524,0.9860000014305115,0.05556561425328255,0.05556561425328255,1e-04,0.9077777862548828,0.5818352103233337,0.5818352103233337
525,0.9860000014305115,0.05562816560268402,0.05562816560268402,1e-04,0.9048888683319092,0.576935350894928,0.576935350894928
526,0.9860000014305115,0.05560537800192833,0.05560537800192833,1e-04,0.9064444303512573,0.5664646625518799,0.5664646625518799
527,0.9860000014305115,0.05561508610844612,0.05561508610844612,1e-04,0.906000018119812,0.5776240825653076,0.5776240825653076
528,0.9860000014305115,0.05523165315389633,0.05523165315389633,1e-04,0.9075555801391602,0.5643296241760254,0.5643296241760254
529,0.9860000014305115,0.05475160479545593,0.05475160479545593,1e-04,0.9073333144187927,0.5540105700492859,0.5540105700492859
530,0.9860000014305115,0.05434808135032654,0.05434808135032654,1e-04,0.9086666703224182,0.5498785972595215,0.5498785972595215
531,0.9860000014305115,0.05428729206323624,0.05428729206323624,1e-04,0.9082221984863281,0.5476204752922058,0.5476205348968506
532,0.9860000014305115,0.05411381274461746,0.05411381274461746,1e-04,0.9095555543899536,0.5529507994651794,0.5529507994651794
533,0.9860000014305115,0.05391240864992142,0.05391240864992142,1e-04,0.9095555543899536,0.5401482582092285,0.5401482582092285
534,0.9860000014305115,0.05368731543421745,0.05368731543421745,1e-04,0.909333348274231,0.5321886539459229,0.5321886539459229
535,0.9860000014305115,0.05379510670900345,0.05379510670900345,1e-04,0.9102222323417664,0.5294467210769653,0.5294467210769653
536,0.9860000014305115,0.05425639450550079,0.05425639450550079,1e-04,0.9122222065925598,0.5264492630958557,0.5264492630958557
537,0.9900000095367432,0.054503183811903,0.054503183811903,1e-04,0.910444438457489,0.5158709287643433,0.5158709287643433
538,0.9860000014305115,0.05500408262014389,0.05500408262014389,1e-04,0.9139999747276306,0.5284497737884521,0.5284497737884521
539,0.9900000095367432,0.054617900401353836,0.054617900401353836,1e-04,0.9126666784286499,0.5105089545249939,0.5105089545249939
540,0.9860000014305115,0.05345500633120537,0.05345500633120537,1e-04,0.9122222065925598,0.5027932524681091,0.5027932524681091
541,0.9879999756813049,0.05271384119987488,0.05271384119987488,1e-04,0.9124444723129272,0.5048936605453491,0.5048936605453491
542,0.9900000095367432,0.05303778871893883,0.05303778871893883,1e-04,0.913777768611908,0.4940715730190277,0.4940715730190277
543,0.9860000014305115,0.05351537838578224,0.05351537838578224,1e-04,0.9155555367469788,0.4996345341205597,0.4996345341205597
544,0.9919999837875366,0.05362257361412048,0.05362257361412048,1e-04,0.9131110906600952,0.491271436214447,0.491271436214447
545,0.9860000014305115,0.053349439054727554,0.053349439054727554,1e-04,0.9160000085830688,0.48322638869285583,0.48322638869285583
546,0.9879999756813049,0.05236254259943962,0.05236254259943962,1e-04,0.9157778024673462,0.4823455810546875,0.4823455810546875
547,0.9900000095367432,0.05202719196677208,0.05202719196677208,1e-04,0.9160000085830688,0.47656169533729553,0.47656169533729553
548,0.9879999756813049,0.052045080810785294,0.052045080810785294,1e-04,0.9182222485542297,0.4728444516658783,0.4728444516658783
549,0.9900000095367432,0.052619434893131256,0.052619434893131256,1e-04,0.9146666526794434,0.46609190106391907,0.46609190106391907
550,0.9860000014305115,0.05284348875284195,0.05284348875284195,1e-04,0.9179999828338623,0.471269428730011,0.471269428730011
551,0.9940000176429749,0.05241064354777336,0.05241064354777336,1e-04,0.9195555448532104,0.467857301235199,0.467857301235199
552,0.9879999756813049,0.0517730750143528,0.0517730750143528,1e-04,0.9193333387374878,0.46620655059814453,0.46620655059814453
553,0.9879999756813049,0.05115192383527756,0.05115192383527756,1e-04,0.9193333387374878,0.45690450072288513,0.45690450072288513
554,0.9940000176429749,0.05105213820934296,0.05105213820934296,1e-04,0.9204444289207458,0.4431292712688446,0.4431292712688446
555,0.9879999756813049,0.05135492607951164,0.05135492607951164,1e-04,0.9208889007568359,0.4500525891780853,0.45005255937576294
556,0.9940000176429749,0.051509760320186615,0.051509760320186615,1e-04,0.9193333387374878,0.44707924127578735,0.44707924127578735
557,0.9879999756813049,0.05152308940887451,0.05152308940887451,1e-04,0.9208889007568359,0.4458862245082855,0.4458862245082855
558,0.9919999837875366,0.05094574764370918,0.05094574764370918,1e-04,0.9217777848243713,0.4396689534187317,0.4396689534187317
559,0.9879999756813049,0.05052758753299713,0.05052758753299713,1e-04,0.9215555787086487,0.4329476058483124,0.4329476058483124
560,0.9940000176429749,0.0501103475689888,0.0501103475689888,1e-04,0.9226666688919067,0.42820873856544495,0.42820873856544495
561,0.9919999837875366,0.0498926155269146,0.0498926155269146,1e-04,0.9231111407279968,0.4252767562866211,0.4252767562866211
562,0.9900000095367432,0.050034064799547195,0.050034064799547195,1e-04,0.9233333468437195,0.42601776123046875,0.42601776123046875
563,0.9940000176429749,0.05037609860301018,0.05037609860301018,1e-04,0.9231111407279968,0.42326822876930237,0.42326822876930237
564,0.9879999756813049,0.05052985996007919,0.05052985996007919,1e-04,0.9251111149787903,0.42287105321884155,0.42287105321884155
565,0.9940000176429749,0.050556156784296036,0.050556156784296036,1e-04,0.9251111149787903,0.41182416677474976,0.41182416677474976
566,0.9879999756813049,0.05013250932097435,0.05013250932097435,1e-04,0.9259999990463257,0.4119751453399658,0.4119751453399658
567,0.9940000176429749,0.049342986196279526,0.049342986196279526,1e-04,0.9242222309112549,0.40796804428100586,0.40796804428100586
568,0.9919999837875366,0.04895379766821861,0.04895379766821861,1e-04,0.9237777590751648,0.4035440683364868,0.4035440683364868
569,0.9900000095367432,0.049199428409338,0.049199428409338,1e-04,0.9277777671813965,0.40702876448631287,0.40702876448631287
570,0.9940000176429749,0.049726977944374084,0.049726977944374084,1e-04,0.9255555272102356,0.39835548400878906,0.39835548400878906
571,0.9879999756813049,0.05039513111114502,0.05039513111114502,1e-04,0.9266666769981384,0.4010268449783325,0.4010268449783325
572,0.9940000176429749,0.05021515116095543,0.05021515116095543,1e-04,0.9253333210945129,0.39700090885162354,0.39700090885162354
573,0.9919999837875366,0.04889306426048279,0.04889306426048279,1e-04,0.9253333210945129,0.3871346712112427,0.3871346712112427
574,0.9900000095367432,0.048265013843774796,0.048265013843774796,1e-04,0.9282222390174866,0.3874453008174896,0.3874453008174896
575,0.9940000176429749,0.04879634827375412,0.04879634827375412,1e-04,0.9255555272102356,0.3839605450630188,0.3839605450630188
576,0.9879999756813049,0.04953698441386223,0.04953698441386223,1e-04,0.9295555353164673,0.3847197890281677,0.3847197890281677
577,0.9940000176429749,0.04931773245334625,0.04931773245334625,1e-04,0.9273333549499512,0.3829820156097412,0.3829820156097412
578,0.9900000095367432,0.04813419654965401,0.04813419654965401,1e-04,0.93022221326828,0.3820996582508087,0.3820996582508087
579,0.9940000176429749,0.04754311218857765,0.04754311218857765,1e-04,0.93022221326828,0.3783670663833618,0.3783670663833618
580,0.9940000176429749,0.04778776317834854,0.04778776317834854,1e-04,0.9284444451332092,0.37311574816703796,0.37311574816703796
581,0.9900000095367432,0.048436351120471954,0.048436351120471954,1e-04,0.9288889169692993,0.3754696249961853,0.3754696249961853
582,0.9940000176429749,0.04867197200655937,0.04867197200655937,1e-04,0.9306666851043701,0.37104088068008423,0.37104088068008423
583,0.9879999756813049,0.04799925163388252,0.04799925163388252,1e-04,0.9319999814033508,0.37322357296943665,0.37322357296943665
584,0.9940000176429749,0.047054607421159744,0.047054607421159744,1e-04,0.9313333630561829,0.36744725704193115,0.36744725704193115
585,0.9940000176429749,0.04686876758933067,0.04686876758933067,1e-04,0.9308888912200928,0.36236926913261414,0.36236926913261414
586,0.9879999756813049,0.04735055938363075,0.04735055938363075,1e-04,0.9297778010368347,0.3715350329875946,0.3715350329875946
587,0.9940000176429749,0.04766278341412544,0.04766278341412544,1e-04,0.9315555691719055,0.364942342042923,0.364942342042923
588,0.9900000095367432,0.047318313270807266,0.047318313270807266,1e-04,0.9317777752876282,0.36057403683662415,0.36057403683662415
589,0.9940000176429749,0.04655097424983978,0.04655097424983978,1e-04,0.9322222471237183,0.3574836552143097,0.3574836552143097
590,0.9940000176429749,0.04615743085741997,0.04615743085741997,1e-04,0.9315555691719055,0.3543398082256317,0.3543398082256317
591,0.9940000176429749,0.04621589556336403,0.04621589556336403,1e-04,0.9304444193840027,0.3561517596244812,0.3561517596244812
592,0.9940000176429749,0.04629289731383324,0.04629289731383324,1e-04,0.9324444532394409,0.3527182936668396,0.3527182936668396
593,0.9919999837875366,0.0463380292057991,0.0463380292057991,1e-04,0.9306666851043701,0.35491618514060974,0.35491618514060974
594,0.9940000176429749,0.046096283942461014,0.046096283942461014,1e-04,0.9324444532394409,0.3532131612300873,0.3532131612300873
595,0.9940000176429749,0.045615244656801224,0.045615244656801224,1e-04,0.9319999814033508,0.3514798581600189,0.3514798581600189
596,0.9940000176429749,0.04535983130335808,0.04535983130335808,1e-04,0.9315555691719055,0.3468242585659027,0.3468242585659027
597,0.9940000176429749,0.04518318176269531,0.04518318176269531,1e-04,0.9317777752876282,0.3455551862716675,0.3455551862716675
598,0.9940000176429749,0.045022718608379364,0.045022718608379364,1e-04,0.9311110973358154,0.34385523200035095,0.34385523200035095
599,0.9940000176429749,0.04489965736865997,0.04489965736865997,1e-04,0.9319999814033508,0.34358879923820496,0.34358879923820496
600,0.9940000176429749,0.04477924481034279,0.04477924481034279,1e-04,0.9317777752876282,0.3446921110153198,0.3446921110153198
601,0.9940000176429749,0.044699665158987045,0.044699665158987045,1e-04,0.9324444532394409,0.3402959108352661,0.3402959108352661
602,0.9940000176429749,0.04474588856101036,0.04474588856101036,1e-04,0.9311110973358154,0.33998903632164,0.33998903632164
603,0.9940000176429749,0.04525486007332802,0.04525486007332802,1e-04,0.933555543422699,0.3322497308254242,0.3322497308254242
604,0.9900000095367432,0.04579758271574974,0.04579758271574974,1e-04,0.9313333630561829,0.3386400043964386,0.3386400043964386
605,0.9940000176429749,0.045909687876701355,0.045909687876701355,1e-04,0.933555543422699,0.3324556350708008,0.3324556350708008
606,0.9919999837875366,0.04475905001163483,0.04475905001163483,1e-04,0.9333333373069763,0.3305448591709137,0.3305448591709137
607,0.9940000176429749,0.04398767650127411,0.04398767650127411,1e-04,0.9328888654708862,0.3249695897102356,0.3249695897102356
608,0.9940000176429749,0.04379744827747345,0.04379744827747345,1e-04,0.933555543422699,0.3217853009700775,0.3217853009700775
609,0.9940000176429749,0.04413795843720436,0.04413795843720436,1e-04,0.9315555691719055,0.32888108491897583,0.32888108491897583
610,0.9940000176429749,0.04514138773083687,0.04514138773083687,1e-04,0.9340000152587891,0.32352378964424133,0.32352378964424133
611,0.9900000095367432,0.045365966856479645,0.045365966856479645,1e-04,0.9319999814033508,0.3283301889896393,0.3283301889896393
612,0.9940000176429749,0.04457015171647072,0.04457015171647072,1e-04,0.9344444274902344,0.31748098134994507,0.31748098134994507
613,0.9940000176429749,0.04339354857802391,0.04339354857802391,1e-04,0.9344444274902344,0.3117075264453888,0.3117075264453888
614,0.9940000176429749,0.043181322515010834,0.043181322515010834,1e-04,0.9328888654708862,0.3159887492656708,0.3159887492656708
615,0.9940000176429749,0.04401653632521629,0.04401653632521629,1e-04,0.9340000152587891,0.31457749009132385,0.31457749009132385
616,0.9919999837875366,0.044560667127370834,0.044560667127370834,1e-04,0.9315555691719055,0.3227953016757965,0.3227953016757965
617,0.9940000176429749,0.04415898770093918,0.04415898770093918,1e-04,0.9340000152587891,0.31381428241729736,0.31381428241729736
618,0.9940000176429749,0.043004244565963745,0.043004244565963745,1e-04,0.9348888993263245,0.3086639940738678,0.3086639940738678
619,0.9940000176429749,0.04260602965950966,0.04260602965950966,1e-04,0.9331111311912537,0.3080441355705261,0.3080441355705261
620,0.9940000176429749,0.04295942187309265,0.04295942187309265,1e-04,0.9353333115577698,0.3029646575450897,0.3029646575450897
621,0.9919999837875366,0.043349385261535645,0.043349385261535645,1e-04,0.9331111311912537,0.3128923177719116,0.3128923177719116
622,0.9940000176429749,0.043593719601631165,0.043593719601631165,1e-04,0.9340000152587891,0.3100123107433319,0.3100123107433319
623,0.9940000176429749,0.04276861250400543,0.04276861250400543,1e-04,0.9340000152587891,0.30831336975097656,0.30831336975097656
624,0.9940000176429749,0.042059190571308136,0.042059190571308136,1e-04,0.9348888993263245,0.30165931582450867,0.30165931582450867
625,0.9940000176429749,0.04194667562842369,0.04194667562842369,1e-04,0.9348888993263245,0.2975105941295624,0.2975105941295624
626,0.9919999837875366,0.04237770289182663,0.04237770289182663,1e-04,0.9328888654708862,0.30489063262939453,0.30489063262939453
627,0.9940000176429749,0.04285643622279167,0.04285643622279167,1e-04,0.937333345413208,0.3000939190387726,0.3000939190387726
628,0.9940000176429749,0.04262233152985573,0.04262233152985573,1e-04,0.9351111054420471,0.3019390106201172,0.3019390106201172
629,0.9940000176429749,0.041839562356472015,0.041839562356472015,1e-04,0.9359999895095825,0.29813259840011597,0.29813259840011597
630,0.9940000176429749,0.04123908281326294,0.04123908281326294,1e-04,0.9348888993263245,0.2964989244937897,0.2964989244937897
631,0.9940000176429749,0.041404109448194504,0.041404109448194504,1e-04,0.9337777495384216,0.2985574007034302,0.2985574007034302
632,0.9940000176429749,0.04186125844717026,0.04186125844717026,1e-04,0.9368888735771179,0.2924309968948364,0.2924309968948364
633,0.9919999837875366,0.04203334078192711,0.04203334078192711,1e-04,0.9326666593551636,0.30187374353408813,0.30187374353408813
634,0.9940000176429749,0.04169139266014099,0.04169139266014099,1e-04,0.9344444274902344,0.29837265610694885,0.29837265610694885
635,0.9940000176429749,0.04086987301707268,0.04086987301707268,1e-04,0.9357777833938599,0.29513686895370483,0.29513686895370483
636,0.9940000176429749,0.04059416428208351,0.04059416428208351,1e-04,0.9346666932106018,0.29668036103248596,0.29668036103248596
637,0.9940000176429749,0.04091450572013855,0.04091450572013855,1e-04,0.9348888993263245,0.29162129759788513,0.29162129759788513
638,0.9940000176429749,0.041504453867673874,0.041504453867673874,1e-04,0.9317777752876282,0.3010290861129761,0.3010290861129761
639,0.9940000176429749,0.04207782447338104,0.04207782447338104,1e-04,0.9348888993263245,0.29803410172462463,0.29803410172462463
640,0.9940000176429749,0.04122360795736313,0.04122360795736313,1e-04,0.9344444274902344,0.30051687359809875,0.30051687359809875
641,0.9940000176429749,0.04009871184825897,0.04009871184825897,1e-04,0.9351111054420471,0.2936178147792816,0.2936178147792816
642,0.9959999918937683,0.04022706300020218,0.04022706300020218,1e-04,0.9359999895095825,0.2867749333381653,0.2867749333381653
643,0.9919999837875366,0.04124239832162857,0.04124239832162857,1e-04,0.9313333630561829,0.30179572105407715,0.30179572105407715
644,0.9959999918937683,0.0417049266397953,0.0417049266397953,1e-04,0.9346666932106018,0.2976324260234833,0.2976324260234833
645,0.9940000176429749,0.04064653068780899,0.04064653068780899,1e-04,0.9353333115577698,0.29241836071014404,0.29241836071014404
646,0.9940000176429749,0.03959835320711136,0.03959835320711136,1e-04,0.9355555772781372,0.2889299690723419,0.2889299690723419
647,0.9959999918937683,0.03980923071503639,0.03980923071503639,1e-04,0.9353333115577698,0.28884315490722656,0.28884315490722656
648,0.9919999837875366,0.040718287229537964,0.040718287229537964,1e-04,0.9326666593551636,0.2941851317882538,0.2941851317882538
649,0.9959999918937683,0.04075489938259125,0.04075489938259125,1e-04,0.9380000233650208,0.2808750867843628,0.2808750867843628
650,0.9940000176429749,0.0396466888487339,0.0396466888487339,1e-04,0.9366666674613953,0.28237196803092957,0.28237196803092957
651,0.9940000176429749,0.03907198831439018,0.03907198831439018,1e-04,0.9357777833938599,0.2828103303909302,0.2828103303909302
652,0.9959999918937683,0.039281100034713745,0.039281100034713745,1e-04,0.9380000233650208,0.27773433923721313,0.27773433923721313
653,0.9940000176429749,0.039534181356430054,0.039534181356430054,1e-04,0.937333345413208,0.28257009387016296,0.28257009387016296
654,0.9959999918937683,0.039653003215789795,0.039653003215789795,1e-04,0.9377777576446533,0.2767238914966583,0.2767238914966583
655,0.9940000176429749,0.03905933350324631,0.03905933350324631,1e-04,0.9364444613456726,0.2778538763523102,0.2778538763523102
656,0.9940000176429749,0.038398582488298416,0.038398582488298416,1e-04,0.9375555515289307,0.27349093556404114,0.27349093556404114
657,0.9959999918937683,0.03835117071866989,0.03835117071866989,1e-04,0.9388889074325562,0.27058836817741394,0.27058836817741394
658,0.9940000176429749,0.038571055978536606,0.038571055978536606,1e-04,0.9371111392974854,0.2815953493118286,0.2815953493118286
659,0.9959999918937683,0.03898289054632187,0.03898289054632187,1e-04,0.9368888735771179,0.277366578578949,0.277366578578949
660,0.9940000176429749,0.038701824843883514,0.038701824843883514,1e-04,0.9366666674613953,0.2767774164676666,0.2767774164676666
661,0.9959999918937683,0.03825303912162781,0.03825303912162781,1e-04,0.9371111392974854,0.27090731263160706,0.27090731263160706
662,0.9940000176429749,0.03778402507305145,0.03778402507305145,1e-04,0.9368888735771179,0.274417906999588,0.274417906999588
663,0.9959999918937683,0.03773849457502365,0.03773849457502365,1e-04,0.9371111392974854,0.27896401286125183,0.27896401286125183
664,0.9959999918937683,0.03775782883167267,0.03775782883167267,1e-04,0.9364444613456726,0.2784288227558136,0.2784288227558136
665,0.9940000176429749,0.038176339119672775,0.038176339119672775,1e-04,0.933555543422699,0.2817348539829254,0.2817348539829254
666,0.9959999918937683,0.03820406645536423,0.03820406645536423,1e-04,0.937333345413208,0.27171438932418823,0.27171438932418823
667,0.9940000176429749,0.03802639618515968,0.03802639618515968,1e-04,0.9364444613456726,0.27530449628829956,0.27530449628829956
668,0.9959999918937683,0.03740842267870903,0.03740842267870903,1e-04,0.9364444613456726,0.27486637234687805,0.27486637234687805
669,0.9959999918937683,0.03709108754992485,0.03709108754992485,1e-04,0.9364444613456726,0.2764905095100403,0.2764905095100403
670,0.9959999918937683,0.03706328198313713,0.03706328198313713,1e-04,0.9366666674613953,0.27509358525276184,0.27509358525276184
671,0.9959999918937683,0.037234991788864136,0.037234991788864136,1e-04,0.9380000233650208,0.26926279067993164,0.26926279067993164
672,0.9940000176429749,0.037551216781139374,0.037551216781139374,1e-04,0.9328888654708862,0.28581637144088745,0.28581637144088745
673,0.9959999918937683,0.037746869027614594,0.037746869027614594,1e-04,0.9364444613456726,0.2730308175086975,0.2730308175086975
674,0.9940000176429749,0.03725080564618111,0.03725080564618111,1e-04,0.9386666417121887,0.2674257159233093,0.2674257159233093
675,0.9959999918937683,0.03659982979297638,0.03659982979297638,1e-04,0.9377777576446533,0.2693747282028198,0.2693747282028198
676,0.9959999918937683,0.03630828857421875,0.03630828857421875,1e-04,0.9371111392974854,0.271129310131073,0.271129310131073
677,0.9959999918937683,0.03643801063299179,0.03643801063299179,1e-04,0.9351111054420471,0.27307069301605225,0.27307069301605225
678,0.9959999918937683,0.03696884214878082,0.03696884214878082,1e-04,0.9391111135482788,0.2609820067882538,0.2609820067882538
679,0.9940000176429749,0.03703843802213669,0.03703843802213669,1e-04,0.9351111054420471,0.27448996901512146,0.27448996901512146
680,0.9959999918937683,0.03670550137758255,0.03670550137758255,1e-04,0.9368888735771179,0.2720752954483032,0.2720752954483032
681,0.9940000176429749,0.036168284714221954,0.036168284714221954,1e-04,0.9386666417121887,0.260183721780777,0.260183721780777
682,0.9959999918937683,0.03580217435956001,0.03580217435956001,1e-04,0.9388889074325562,0.2618458569049835,0.2618458569049835
683,0.9959999918937683,0.03570250794291496,0.03570250794291496,1e-04,0.9375555515289307,0.26375654339790344,0.26375654339790344
684,0.9959999918937683,0.03593636676669121,0.03593636676669121,1e-04,0.9353333115577698,0.2730846405029297,0.2730846405029297
685,0.9959999918937683,0.036168549209833145,0.036168549209833145,1e-04,0.9375555515289307,0.2660379707813263,0.2660379707813263
686,0.9940000176429749,0.035940058529376984,0.035940058529376984,1e-04,0.9375555515289307,0.26255184412002563,0.26255184412002563
687,0.9959999918937683,0.03546742722392082,0.03546742722392082,1e-04,0.9384444355964661,0.2610558271408081,0.2610558271408081
688,0.9959999918937683,0.034971728920936584,0.034971728920936584,1e-04,0.9375555515289307,0.2651835083961487,0.2651835083961487
689,0.9959999918937683,0.0349525548517704,0.0349525548517704,1e-04,0.9377777576446533,0.2619588077068329,0.2619588077068329
690,0.9959999918937683,0.035008545964956284,0.035008545964956284,1e-04,0.9393333196640015,0.2570955753326416,0.2570955753326416
691,0.9959999918937683,0.03514222055673599,0.03514222055673599,1e-04,0.9382222294807434,0.2628948986530304,0.2628948986530304
692,0.9959999918937683,0.03523038327693939,0.03523038327693939,1e-04,0.9386666417121887,0.25912031531333923,0.25912031531333923
693,0.9959999918937683,0.035190410912036896,0.035190410912036896,1e-04,0.9380000233650208,0.25995418429374695,0.25995418429374695
694,0.9959999918937683,0.03500639274716377,0.03500639274716377,1e-04,0.9411110877990723,0.24936720728874207,0.24936720728874207
695,0.9959999918937683,0.03456394374370575,0.03456394374370575,1e-04,0.9388889074325562,0.25604209303855896,0.25604209303855896
696,0.9959999918937683,0.03422841057181358,0.03422841057181358,1e-04,0.9388889074325562,0.2589131295681,0.2589131295681
697,0.9959999918937683,0.034111328423023224,0.034111328423023224,1e-04,0.9404444694519043,0.25293874740600586,0.25293874740600586
698,0.9959999918937683,0.03406883031129837,0.03406883031129837,1e-04,0.9402222037315369,0.25441062450408936,0.25441062450408936
699,0.9959999918937683,0.03398224711418152,0.03398224711418152,1e-04,0.9386666417121887,0.25660228729248047,0.25660228729248047
700,0.9959999918937683,0.03409690782427788,0.03409690782427788,1e-04,0.9382222294807434,0.2585626542568207,0.2585626542568207
701,0.9959999918937683,0.034371186047792435,0.034371186047792435,1e-04,0.9413333535194397,0.24760568141937256,0.24760568141937256
702,0.9959999918937683,0.03468351811170578,0.03468351811170578,1e-04,0.9391111135482788,0.2552046775817871,0.2552046775817871
703,0.9959999918937683,0.03498418629169464,0.03498418629169464,1e-04,0.9393333196640015,0.2540647089481354,0.2540647089481354
704,0.9940000176429749,0.03481388837099075,0.03481388837099075,1e-04,0.9388889074325562,0.2554275393486023,0.2554275393486023
705,0.9959999918937683,0.034074898809194565,0.034074898809194565,1e-04,0.9411110877990723,0.24690572917461395,0.24690572917461395
706,0.9959999918937683,0.03336862847208977,0.03336862847208977,1e-04,0.9413333535194397,0.2486124187707901,0.2486124187707901
707,0.9959999918937683,0.03330869600176811,0.03330869600176811,1e-04,0.9386666417121887,0.2587369382381439,0.2587369382381439
708,0.9959999918937683,0.03415056690573692,0.03415056690573692,1e-04,0.9413333535194397,0.24545569717884064,0.24545569717884064
709,0.9959999918937683,0.034770067781209946,0.034770067781209946,1e-04,0.9408888816833496,0.24910014867782593,0.24910014867782593
710,0.9959999918937683,0.03469434380531311,0.03469434380531311,1e-04,0.9408888816833496,0.25003087520599365,0.25003087520599365
711,0.9940000176429749,0.03373473510146141,0.03373473510146141,1e-04,0.9408888816833496,0.24782833456993103,0.24782833456993103
712,0.9959999918937683,0.03296010568737984,0.03296010568737984,1e-04,0.9411110877990723,0.24741287529468536,0.24741287529468536
713,0.9959999918937683,0.03335823491215706,0.03335823491215706,1e-04,0.941777765750885,0.2428504228591919,0.2428504228591919
714,0.9959999918937683,0.03415194898843765,0.03415194898843765,1e-04,0.9391111135482788,0.2539761960506439,0.2539761960506439
715,0.9959999918937683,0.03447539359331131,0.03447539359331131,1e-04,0.9395555257797241,0.2520836591720581,0.2520836591720581
716,0.9940000176429749,0.033420152962207794,0.033420152962207794,1e-04,0.9415555596351624,0.2435426115989685,0.2435426115989685
717,0.9959999918937683,0.03244178742170334,0.03244178742170334,1e-04,0.9408888816833496,0.2429567128419876,0.2429567128419876
718,0.9959999918937683,0.032966747879981995,0.032966747879981995,1e-04,0.9415555596351624,0.24550916254520416,0.24550916254520416
719,0.9940000176429749,0.03397233411669731,0.03397233411669731,1e-04,0.9404444694519043,0.24981705844402313,0.24981705844402313
720,0.9959999918937683,0.03340941667556763,0.03340941667556763,1e-04,0.9413333535194397,0.2424515187740326,0.2424515187740326
721,0.9959999918937683,0.032491136342287064,0.032491136342287064,1e-04,0.9411110877990723,0.2414322942495346,0.2414322942495346
722,0.9959999918937683,0.032218772917985916,0.032218772917985916,1e-04,0.940666675567627,0.24107980728149414,0.24107980728149414
723,0.9959999918937683,0.0326385572552681,0.0326385572552681,1e-04,0.9402222037315369,0.24147075414657593,0.24147075414657593
724,0.9959999918937683,0.03281649947166443,0.03281649947166443,1e-04,0.9411110877990723,0.243460014462471,0.243460014462471
725,0.9959999918937683,0.03251570835709572,0.03251570835709572,1e-04,0.940666675567627,0.23963552713394165,0.23963552713394165
726,0.9959999918937683,0.03182491287589073,0.03182491287589073,1e-04,0.9415555596351624,0.24003803730010986,0.24003803730010986
727,0.9959999918937683,0.03152794763445854,0.03152794763445854,1e-04,0.941777765750885,0.24021375179290771,0.24021375179290771
728,0.9959999918937683,0.03146777302026749,0.03146777302026749,1e-04,0.9411110877990723,0.24003179371356964,0.24003179371356964
729,0.9959999918937683,0.031662341207265854,0.031662341207265854,1e-04,0.9415555596351624,0.24080058932304382,0.24080058932304382
730,0.9959999918937683,0.03181880712509155,0.03181880712509155,1e-04,0.9404444694519043,0.2413998246192932,0.2413998246192932
731,0.9959999918937683,0.03144192695617676,0.03144192695617676,1e-04,0.9422222375869751,0.24020874500274658,0.24020874500274658
732,0.9959999918937683,0.031126799061894417,0.031126799061894417,1e-04,0.941777765750885,0.23931831121444702,0.23931831121444702
733,0.9959999918937683,0.030874721705913544,0.030874721705913544,1e-04,0.9411110877990723,0.24039225280284882,0.24039225280284882
734,0.9959999918937683,0.03078826516866684,0.03078826516866684,1e-04,0.9408888816833496,0.24157020449638367,0.24157020449638367
735,0.9959999918937683,0.030758162960410118,0.030758162960410118,1e-04,0.9404444694519043,0.24200043082237244,0.24200043082237244
736,0.9959999918937683,0.030850769951939583,0.030850769951939583,1e-04,0.9419999718666077,0.24055638909339905,0.24055638909339905
737,0.9959999918937683,0.031077709048986435,0.031077709048986435,1e-04,0.9391111135482788,0.24471090734004974,0.24471090734004974
738,0.9959999918937683,0.03109869733452797,0.03109869733452797,1e-04,0.940666675567627,0.24315014481544495,0.24315014481544495
739,0.9959999918937683,0.030724046751856804,0.030724046751856804,1e-04,0.9402222037315369,0.2422894984483719,0.2422894984483719
740,0.9959999918937683,0.03045564889907837,0.03045564889907837,1e-04,0.9388889074325562,0.24636965990066528,0.24636965990066528
741,0.9959999918937683,0.030253268778324127,0.030253268778324127,1e-04,0.9366666674613953,0.251569002866745,0.251569002866745
742,0.9959999918937683,0.03011809103190899,0.03011809103190899,1e-04,0.9386666417121887,0.24625325202941895,0.24625325202941895
743,0.9959999918937683,0.030267326161265373,0.030267326161265373,1e-04,0.9411110877990723,0.24229280650615692,0.24229280650615692
744,0.9980000257492065,0.030568938702344894,0.030568938702344894,1e-04,0.9342222213745117,0.2555673122406006,0.2555673122406006
745,0.9959999918937683,0.030614620074629784,0.030614620074629784,1e-04,0.9353333115577698,0.2526448667049408,0.2526448667049408
746,0.9959999918937683,0.030612651258707047,0.030612651258707047,1e-04,0.9340000152587891,0.2567243278026581,0.2567243278026581
747,0.9959999918937683,0.030195927247405052,0.030195927247405052,1e-04,0.9380000233650208,0.24865728616714478,0.24865728616714478
748,0.9959999918937683,0.029812518507242203,0.029812518507242203,1e-04,0.9319999814033508,0.2630406320095062,0.2630406320095062
749,0.9959999918937683,0.029559683054685593,0.029559683054685593,1e-04,0.9344444274902344,0.25571131706237793,0.25571131706237793
750,0.9959999918937683,0.029427748173475266,0.029427748173475266,1e-04,0.9382222294807434,0.247780904173851,0.247780904173851
751,0.9980000257492065,0.02950621210038662,0.02950621210038662,1e-04,0.933555543422699,0.2569498121738434,0.2569498121738434
752,0.9959999918937683,0.029636787250638008,0.029636787250638008,1e-04,0.9353333115577698,0.2523055672645569,0.2523055672645569
753,0.9959999918937683,0.03003007359802723,0.03003007359802723,1e-04,0.9326666593551636,0.26267778873443604,0.26267778873443604
754,0.9959999918937683,0.03011239692568779,0.03011239692568779,1e-04,0.937333345413208,0.2492300570011139,0.2492300570011139
755,0.9980000257492065,0.029873467981815338,0.029873467981815338,1e-04,0.9340000152587891,0.25675347447395325,0.25675347447395325
756,0.9959999918937683,0.029284687712788582,0.029284687712788582,1e-04,0.9319999814033508,0.264572411775589,0.264572411775589
757,1.0,0.0289403535425663,0.0289403535425663,1e-04,0.9328888654708862,0.2588631808757782,0.2588631808757782
758,0.9980000257492065,0.028805000707507133,0.028805000707507133,1e-04,0.9351111054420471,0.2536480724811554,0.2536480724811554
759,0.9959999918937683,0.02904294803738594,0.02904294803738594,1e-04,0.9371111392974854,0.2491939514875412,0.2491939514875412
760,1.0,0.029472574591636658,0.029472574591636658,1e-04,0.9315555691719055,0.2646879553794861,0.2646879553794861
761,0.9959999918937683,0.029530741274356842,0.029530741274356842,1e-04,0.9357777833938599,0.2519872486591339,0.2519872486591339
762,0.9959999918937683,0.02939530834555626,0.02939530834555626,1e-04,0.9311110973358154,0.265037477016449,0.265037477016449
763,0.9980000257492065,0.02890515699982643,0.02890515699982643,1e-04,0.9328888654708862,0.2596849799156189,0.2596849799156189
764,0.9980000257492065,0.02838684804737568,0.02838684804737568,1e-04,0.9304444193840027,0.26719608902931213,0.26719608902931213
765,0.9980000257492065,0.028251538053154945,0.028251538053154945,1e-04,0.9317777752876282,0.263713538646698,0.263713538646698
766,0.9980000257492065,0.028325434774160385,0.028325434774160385,1e-04,0.9366666674613953,0.25057145953178406,0.25057145953178406
767,0.9980000257492065,0.028664782643318176,0.028664782643318176,1e-04,0.9293333292007446,0.271842896938324,0.271842896938324
768,0.9980000257492065,0.028826303780078888,0.028826303780078888,1e-04,0.9342222213745117,0.2574816048145294,0.2574816048145294
769,0.9980000257492065,0.028759067878127098,0.028759067878127098,1e-04,0.9322222471237183,0.2614707350730896,0.2614707350730896
770,0.9959999918937683,0.02843608520925045,0.02843608520925045,1e-04,0.9340000152587891,0.2578561007976532,0.2578561007976532
771,1.0,0.028048042207956314,0.028048042207956314,1e-04,0.9326666593551636,0.2616586983203888,0.2616586983203888
772,0.9959999918937683,0.027749164029955864,0.027749164029955864,1e-04,0.9319999814033508,0.26377710700035095,0.26377710700035095
773,1.0,0.027579858899116516,0.027579858899116516,1e-04,0.9342222213745117,0.2552770972251892,0.2552770972251892
774,1.0,0.027665607631206512,0.027665607631206512,1e-04,0.9326666593551636,0.2617855370044708,0.2617855370044708
775,0.9980000257492065,0.02785215899348259,0.02785215899348259,1e-04,0.9364444613456726,0.2518070340156555,0.2518070340156555
776,1.0,0.02813621051609516,0.02813621051609516,1e-04,0.9340000152587891,0.2575960159301758,0.2575960159301758
777,0.9980000257492065,0.028197940438985825,0.028197940438985825,1e-04,0.9368888735771179,0.25121140480041504,0.25121140480041504
778,1.0,0.02804497629404068,0.02804497629404068,1e-04,0.9319999814033508,0.26513102650642395,0.26513102650642395
779,0.9980000257492065,0.02763795293867588,0.02763795293867588,1e-04,0.9353333115577698,0.2546808123588562,0.2546808123588562
780,1.0,0.027231305837631226,0.027231305837631226,1e-04,0.9333333373069763,0.2595817446708679,0.2595817446708679
781,1.0,0.02699287049472332,0.02699287049472332,1e-04,0.9342222213745117,0.25561100244522095,0.25561100244522095
782,0.9980000257492065,0.026917824521660805,0.026917824521660805,1e-04,0.9380000233650208,0.25092434883117676,0.25092434883117676
783,1.0,0.027052341029047966,0.027052341029047966,1e-04,0.9342222213745117,0.25723281502723694,0.25723281502723694
784,0.9980000257492065,0.02729601226747036,0.02729601226747036,1e-04,0.9393333196640015,0.24990342557430267,0.24990342557430267
785,1.0,0.02764776535332203,0.02764776535332203,1e-04,0.9344444274902344,0.25766026973724365,0.25766026973724365
786,0.9980000257492065,0.027607059106230736,0.027607059106230736,1e-04,0.9395555257797241,0.24891188740730286,0.24891188740730286
787,1.0,0.027418354526162148,0.027418354526162148,1e-04,0.9340000152587891,0.2566986083984375,0.2566986083984375
788,0.9980000257492065,0.026821115985512733,0.026821115985512733,1e-04,0.9342222213745117,0.25620192289352417,0.25620192289352417
789,1.0,0.02643914334475994,0.02643914334475994,1e-04,0.9371111392974854,0.25270646810531616,0.25270646810531616
790,1.0,0.026326697319746017,0.026326697319746017,1e-04,0.9366666674613953,0.2532109022140503,0.2532109022140503
791,1.0,0.02648194693028927,0.02648194693028927,1e-04,0.9395555257797241,0.24781814217567444,0.24781814217567444
792,1.0,0.026816731318831444,0.026816731318831444,1e-04,0.9357777833938599,0.25191575288772583,0.25191575288772583
793,0.9980000257492065,0.02703750878572464,0.02703750878572464,1e-04,0.9397777915000916,0.24738897383213043,0.24738897383213043
794,1.0,0.027062183246016502,0.027062183246016502,1e-04,0.9377777576446533,0.25030094385147095,0.25030094385147095
795,0.9980000257492065,0.026559796184301376,0.026559796184301376,1e-04,0.9393333196640015,0.24683889746665955,0.24683889746665955
796,1.0,0.026059765368700027,0.026059765368700027,1e-04,0.9388889074325562,0.24857671558856964,0.24857671558856964
797,1.0,0.02582082711160183,0.02582082711160183,1e-04,0.9393333196640015,0.24829131364822388,0.24829131364822388
798,0.9980000257492065,0.025909997522830963,0.025909997522830963,1e-04,0.9411110877990723,0.24611057341098785,0.24611057341098785
799,1.0,0.026143021881580353,0.026143021881580353,1e-04,0.9391111135482788,0.24659030139446259,0.24659030139446259
800,0.9980000257492065,0.0262950137257576,0.0262950137257576,1e-04,0.9411110877990723,0.2468717247247696,0.2468717247247696
801,1.0,0.02641279250383377,0.02641279250383377,1e-04,0.9386666417121887,0.2476404905319214,0.2476404905319214
802,1.0,0.026054592803120613,0.026054592803120613,1e-04,0.9408888816833496,0.247915580868721,0.247915580868721
803,1.0,0.02563379891216755,0.02563379891216755,1e-04,0.9386666417121887,0.24811585247516632,0.24811585247516632
804,1.0,0.025294357910752296,0.025294357910752296,1e-04,0.9391111135482788,0.24814572930335999,0.24814572930335999
805,1.0,0.025309177115559578,0.025309177115559578,1e-04,0.941777765750885,0.24808956682682037,0.24808956682682037
806,1.0,0.025641504675149918,0.025641504675149918,1e-04,0.9386666417121887,0.24918365478515625,0.24918365478515625
807,1.0,0.025938689708709717,0.025938689708709717,1e-04,0.9408888816833496,0.24882207810878754,0.24882207810878754
808,1.0,0.02587013505399227,0.02587013505399227,1e-04,0.9388889074325562,0.2498830258846283,0.2498830258846283
809,0.9980000257492065,0.025604546070098877,0.025604546070098877,1e-04,0.9388889074325562,0.251376211643219,0.251376211643219
810,1.0,0.025383995845913887,0.025383995845913887,1e-04,0.9382222294807434,0.25330033898353577,0.25330033898353577
811,0.9980000257492065,0.025240890681743622,0.025240890681743622,1e-04,0.9382222294807434,0.25143739581108093,0.25143739581108093
812,1.0,0.02489319257438183,0.02489319257438183,1e-04,0.9388889074325562,0.25004303455352783,0.25004303455352783
813,1.0,0.02489946410059929,0.02489946410059929,1e-04,0.9371111392974854,0.2531951367855072,0.2531951367855072
814,0.9980000257492065,0.02508660778403282,0.02508660778403282,1e-04,0.9384444355964661,0.250011146068573,0.250011146068573
815,1.0,0.025242812931537628,0.025242812931537628,1e-04,0.9399999976158142,0.25138235092163086,0.25138235092163086
816,0.9980000257492065,0.025099100545048714,0.025099100545048714,1e-04,0.9388889074325562,0.2502714991569519,0.2502714991569519
817,1.0,0.024859638884663582,0.024859638884663582,1e-04,0.9362221956253052,0.2541007697582245,0.2541007697582245
818,1.0,0.024731377139687538,0.024731377139687538,1e-04,0.9399999976158142,0.25242629647254944,0.25242629647254944
819,1.0,0.024492312222719193,0.024492312222719193,1e-04,0.9391111135482788,0.2505182921886444,0.2505182921886444
820,1.0,0.024278149008750916,0.024278149008750916,1e-04,0.9364444613456726,0.2553199827671051,0.2553199827671051
821,1.0,0.02428560145199299,0.02428560145199299,1e-04,0.9395555257797241,0.2531495988368988,0.2531495988368988
822,1.0,0.024614926427602768,0.024614926427602768,1e-04,0.9382222294807434,0.2524646520614624,0.2524646520614624
823,1.0,0.024944480508565903,0.024944480508565903,1e-04,0.9397777915000916,0.25117024779319763,0.25117024779319763
824,1.0,0.024714207276701927,0.024714207276701927,1e-04,0.937333345413208,0.2539669871330261,0.2539669871330261
825,1.0,0.02450968325138092,0.02450968325138092,1e-04,0.9388889074325562,0.2511639893054962,0.2511639893054962
826,1.0,0.024410266429185867,0.024410266429185867,1e-04,0.9388889074325562,0.2553718388080597,0.2553718388080597
827,0.9980000257492065,0.024158718064427376,0.024158718064427376,1e-04,0.9382222294807434,0.25483518838882446,0.25483518838882446
828,1.0,0.023732198402285576,0.023732198402285576,1e-04,0.9382222294807434,0.2534860670566559,0.2534860670566559
829,1.0,0.023740528151392937,0.023740528151392937,1e-04,0.9388889074325562,0.25314557552337646,0.25314557552337646
830,1.0,0.02379913255572319,0.02379913255572319,1e-04,0.9395555257797241,0.25102099776268005,0.25102099776268005
831,1.0,0.023919757455587387,0.023919757455587387,1e-04,0.9391111135482788,0.2529209852218628,0.2529209852218628
832,1.0,0.023741833865642548,0.023741833865642548,1e-04,0.9380000233650208,0.2538069486618042,0.2538069486618042
833,1.0,0.023601127788424492,0.023601127788424492,1e-04,0.937333345413208,0.25557464361190796,0.25557464361190796
834,1.0,0.023559516295790672,0.023559516295790672,1e-04,0.941777765750885,0.25626444816589355,0.25626444816589355
835,1.0,0.023470787331461906,0.023470787331461906,1e-04,0.9384444355964661,0.25358209013938904,0.25358209013938904
836,1.0,0.023346560075879097,0.023346560075879097,1e-04,0.9384444355964661,0.2557879090309143,0.2557879090309143
837,1.0,0.023160865530371666,0.023160865530371666,1e-04,0.9395555257797241,0.25758451223373413,0.25758451223373413
838,1.0,0.02314077317714691,0.02314077317714691,1e-04,0.9395555257797241,0.2554171681404114,0.2554171681404114
839,1.0,0.023111827671527863,0.023111827671527863,1e-04,0.9397777915000916,0.2566956579685211,0.2566956579685211
840,1.0,0.023058194667100906,0.023058194667100906,1e-04,0.9397777915000916,0.2557223439216614,0.2557223439216614
841,1.0,0.023031027987599373,0.023031027987599373,1e-04,0.9402222037315369,0.2575737237930298,0.2575737237930298
842,1.0,0.023028377443552017,0.023028377443552017,1e-04,0.9408888816833496,0.2616485357284546,0.2616485357284546
843,1.0,0.023248357698321342,0.023248357698321342,1e-04,0.9364444613456726,0.2594049870967865,0.2594049870967865
844,1.0,0.02349722757935524,0.02349722757935524,1e-04,0.9408888816833496,0.26219314336776733,0.26219314336776733
845,1.0,0.023473059758543968,0.023473059758543968,1e-04,0.9408888816833496,0.2603861689567566,0.2603861689567566
846,1.0,0.023373810574412346,0.023373810574412346,1e-04,0.9415555596351624,0.2583587169647217,0.2583587169647217
847,1.0,0.023116357624530792,0.023116357624530792,1e-04,0.9388889074325562,0.2611147463321686,0.2611147463321686
848,1.0,0.022768534719944,0.022768534719944,1e-04,0.9411110877990723,0.26178982853889465,0.26178982853889465
849,1.0,0.02241799794137478,0.02241799794137478,1e-04,0.9408888816833496,0.2619799077510834,0.2619799077510834
850,1.0,0.022292030975222588,0.022292030975222588,1e-04,0.9402222037315369,0.26140132546424866,0.26140132546424866
851,1.0,0.022336773574352264,0.022336773574352264,1e-04,0.9415555596351624,0.2583669424057007,0.2583669424057007
852,1.0,0.022418659180402756,0.022418659180402756,1e-04,0.9415555596351624,0.2632100284099579,0.2632100284099579
853,1.0,0.0225730761885643,0.0225730761885643,1e-04,0.9408888816833496,0.26705458760261536,0.26705458760261536
854,1.0,0.022772984579205513,0.022772984579205513,1e-04,0.9402222037315369,0.2588600516319275,0.2588600516319275
855,1.0,0.02290298603475094,0.02290298603475094,1e-04,0.9411110877990723,0.26836395263671875,0.26836395263671875
856,1.0,0.022587403655052185,0.022587403655052185,1e-04,0.9415555596351624,0.26737794280052185,0.26737794280052185
857,1.0,0.022107571363449097,0.022107571363449097,1e-04,0.9413333535194397,0.26608890295028687,0.26608890295028687
858,1.0,0.021840175613760948,0.021840175613760948,1e-04,0.9408888816833496,0.2712175250053406,0.2712175250053406
859,1.0,0.021820448338985443,0.021820448338985443,1e-04,0.9411110877990723,0.2680305242538452,0.2680305242538452
860,1.0,0.02200922556221485,0.02200922556221485,1e-04,0.9415555596351624,0.2761516571044922,0.2761516571044922
861,1.0,0.022320207208395004,0.022320207208395004,1e-04,0.9424444437026978,0.2701162099838257,0.2701162099838257
862,1.0,0.02251189947128296,0.02251189947128296,1e-04,0.9422222375869751,0.27803218364715576,0.27803218364715576
863,1.0,0.02258451282978058,0.02258451282978058,1e-04,0.9424444437026978,0.2774673104286194,0.2774673104286194
864,1.0,0.022112147882580757,0.022112147882580757,1e-04,0.9422222375869751,0.27785158157348633,0.27785158157348633
865,1.0,0.02155778929591179,0.02155778929591179,1e-04,0.9422222375869751,0.2770286500453949,0.2770286500453949
866,1.0,0.021377691999077797,0.021377691999077797,1e-04,0.941777765750885,0.28341108560562134,0.28341108560562134
867,1.0,0.021629901602864265,0.021629901602864265,1e-04,0.9397777915000916,0.28968527913093567,0.28968527913093567
868,1.0,0.021827302873134613,0.021827302873134613,1e-04,0.941777765750885,0.2811790108680725,0.2811790108680725
869,1.0,0.021830137819051743,0.021830137819051743,1e-04,0.9399999976158142,0.289274126291275,0.289274126291275
870,1.0,0.021553581580519676,0.021553581580519676,1e-04,0.941777765750885,0.2811538279056549,0.2811538279056549
871,1.0,0.02125873602926731,0.02125873602926731,1e-04,0.9404444694519043,0.2917596697807312,0.2917596697807312
872,1.0,0.02109154872596264,0.02109154872596264,1e-04,0.9411110877990723,0.28415781259536743,0.28415781259536743
873,1.0,0.021025726571679115,0.021025726571679115,1e-04,0.9402222037315369,0.29045504331588745,0.29045504331588745
874,1.0,0.020966069772839546,0.020966069772839546,1e-04,0.9386666417121887,0.29604387283325195,0.29604387283325195
875,1.0,0.020944787189364433,0.020944787189364433,1e-04,0.9404444694519043,0.28659871220588684,0.28659871220588684
876,1.0,0.02107621356844902,0.02107621356844902,1e-04,0.937333345413208,0.3033212423324585,0.3033212423324585
877,1.0,0.021077079698443413,0.021077079698443413,1e-04,0.940666675567627,0.2863188683986664,0.2863188683986664
878,1.0,0.02117406763136387,0.02117406763136387,1e-04,0.9377777576446533,0.29698559641838074,0.29698559641838074
879,1.0,0.021188991144299507,0.021188991144299507,1e-04,0.9397777915000916,0.2941713035106659,0.2941713035106659
880,1.0,0.021182335913181305,0.021182335913181305,1e-04,0.9364444613456726,0.30141204595565796,0.30141204595565796
881,1.0,0.02107713744044304,0.02107713744044304,1e-04,0.9393333196640015,0.29748526215553284,0.29748526215553284
882,1.0,0.02071266621351242,0.02071266621351242,1e-04,0.9388889074325562,0.29626235365867615,0.29626235365867615
883,1.0,0.02043132297694683,0.02043132297694683,1e-04,0.9384444355964661,0.2967440187931061,0.2967440187931061
884,1.0,0.020363278687000275,0.020363278687000275,1e-04,0.9366666674613953,0.30418717861175537,0.30418717861175537
885,1.0,0.02046084962785244,0.02046084962785244,1e-04,0.9380000233650208,0.29573145508766174,0.29573145508766174
886,1.0,0.02050146833062172,0.02050146833062172,1e-04,0.9393333196640015,0.293582946062088,0.293582946062088
887,1.0,0.020593591034412384,0.020593591034412384,1e-04,0.9355555772781372,0.3085670471191406,0.3085670471191406
888,1.0,0.020740756765007973,0.020740756765007973,1e-04,0.9402222037315369,0.2860507369041443,0.2860507369041443
889,1.0,0.020715204998850822,0.020715204998850822,1e-04,0.9384444355964661,0.29935163259506226,0.29935163259506226
890,1.0,0.020397689193487167,0.020397689193487167,1e-04,0.9404444694519043,0.2895371615886688,0.2895371615886688
891,1.0,0.020042167976498604,0.020042167976498604,1e-04,0.9397777915000916,0.29058921337127686,0.29058921337127686
892,1.0,0.01991792768239975,0.01991792768239975,1e-04,0.940666675567627,0.2883913516998291,0.2883913516998291
893,1.0,0.019905444234609604,0.019905444234609604,1e-04,0.9424444437026978,0.279977411031723,0.279977411031723
894,1.0,0.019843341782689095,0.019843341782689095,1e-04,0.940666675567627,0.288086861371994,0.288086861371994
895,1.0,0.01989363320171833,0.01989363320171833,1e-04,0.9415555596351624,0.275425523519516,0.275425523519516
896,1.0,0.019887421280145645,0.019887421280145645,1e-04,0.941777765750885,0.2817322015762329,0.2817322015762329
897,1.0,0.019996268674731255,0.019996268674731255,1e-04,0.941777765750885,0.27906379103660583,0.27906379103660583
898,1.0,0.02012018859386444,0.02012018859386444,1e-04,0.9408888816833496,0.2828619182109833,0.2828619182109833
899,1.0,0.020306602120399475,0.020306602120399475,1e-04,0.9413333535194397,0.27163955569267273,0.27163955569267273
900,1.0,0.02019122987985611,0.02019122987985611,1e-04,0.9411110877990723,0.284219890832901,0.284219890832901
901,1.0,0.02000970020890236,0.02000970020890236,1e-04,0.941777765750885,0.27697864174842834,0.27697864174842834
902,1.0,0.019706008955836296,0.019706008955836296,1e-04,0.9419999718666077,0.2834435701370239,0.2834435701370239
903,1.0,0.019441969692707062,0.019441969692707062,1e-04,0.9413333535194397,0.2750225067138672,0.2750225067138672
904,1.0,0.01931789517402649,0.01931789517402649,1e-04,0.9424444437026978,0.2834542989730835,0.2834542989730835
905,1.0,0.019264928996562958,0.019264928996562958,1e-04,0.941777765750885,0.28652065992355347,0.28652065992355347
906,1.0,0.019349969923496246,0.019349969923496246,1e-04,0.9415555596351624,0.2733649015426636,0.2733649015426636
907,1.0,0.019489316269755363,0.019489316269755363,1e-04,0.9415555596351624,0.28706449270248413,0.28706449270248413
908,1.0,0.019615402445197105,0.019615402445197105,1e-04,0.9424444437026978,0.2817414104938507,0.2817414104938507
909,1.0,0.019581664353609085,0.019581664353609085,1e-04,0.941777765750885,0.28738129138946533,0.28738129138946533
910,1.0,0.019436003640294075,0.019436003640294075,1e-04,0.941777765750885,0.2789732813835144,0.2789732813835144
911,1.0,0.019192427396774292,0.019192427396774292,1e-04,0.941777765750885,0.2818174362182617,0.2818174362182617
912,1.0,0.018988752737641335,0.018988752737641335,1e-04,0.9426666498184204,0.2860903739929199,0.2860903739929199
913,1.0,0.018829241394996643,0.018829241394996643,1e-04,0.9415555596351624,0.28084421157836914,0.28084421157836914
914,1.0,0.01878504268825054,0.01878504268825054,1e-04,0.9419999718666077,0.28176459670066833,0.28176459670066833
915,1.0,0.018827339634299278,0.018827339634299278,1e-04,0.9422222375869751,0.28203800320625305,0.28203800320625305
916,1.0,0.018963880836963654,0.018963880836963654,1e-04,0.9413333535194397,0.28968146443367004,0.28968146443367004
917,1.0,0.01919018104672432,0.01919018104672432,1e-04,0.9426666498184204,0.27885881066322327,0.27885881066322327
918,1.0,0.019409319385886192,0.019409319385886192,1e-04,0.9411110877990723,0.29170089960098267,0.29170089960098267
919,1.0,0.019588379189372063,0.019588379189372063,1e-04,0.9426666498184204,0.28345102071762085,0.28345102071762085
920,1.0,0.019176442176103592,0.019176442176103592,1e-04,0.9424444437026978,0.28564783930778503,0.28564783930778503
921,1.0,0.018694739788770676,0.018694739788770676,1e-04,0.9419999718666077,0.2893952429294586,0.2893952429294586
922,1.0,0.01840197667479515,0.01840197667479515,1e-04,0.9415555596351624,0.28737810254096985,0.28737810254096985
923,1.0,0.01855321042239666,0.01855321042239666,1e-04,0.9413333535194397,0.28767383098602295,0.28767383098602295
924,1.0,0.01873053051531315,0.01873053051531315,1e-04,0.941777765750885,0.2858414649963379,0.2858414649963379
925,1.0,0.018981102854013443,0.018981102854013443,1e-04,0.9386666417121887,0.2968929409980774,0.2968929409980774
926,1.0,0.01891247183084488,0.01891247183084488,1e-04,0.9426666498184204,0.2835805118083954,0.2835805118083954
927,1.0,0.01852991431951523,0.01852991431951523,1e-04,0.9415555596351624,0.2907607853412628,0.2907607853412628
928,1.0,0.01821436733007431,0.01821436733007431,1e-04,0.9408888816833496,0.2917979061603546,0.2917979061603546
929,1.0,0.018138999119400978,0.018138999119400978,1e-04,0.9404444694519043,0.2947102189064026,0.2947102189064026
930,1.0,0.01828012801706791,0.01828012801706791,1e-04,0.9411110877990723,0.2900203466415405,0.2900203466415405
931,1.0,0.018446655943989754,0.018446655943989754,1e-04,0.9428889155387878,0.27789023518562317,0.27789023518562317
932,1.0,0.018530240282416344,0.018530240282416344,1e-04,0.9388889074325562,0.30059927701950073,0.30059927701950073
933,1.0,0.01841004006564617,0.01841004006564617,1e-04,0.9424444437026978,0.2836594581604004,0.2836594581604004
934,1.0,0.018049955368041992,0.018049955368041992,1e-04,0.9419999718666077,0.28139781951904297,0.28139781951904297
935,1.0,0.017803121358156204,0.017803121358156204,1e-04,0.9419999718666077,0.2833627760410309,0.2833627760410309
936,1.0,0.017753103747963905,0.017753103747963905,1e-04,0.9422222375869751,0.2819940745830536,0.2819940745830536
937,1.0,0.017877668142318726,0.017877668142318726,1e-04,0.9408888816833496,0.28774189949035645,0.28774189949035645
938,1.0,0.017977774143218994,0.017977774143218994,1e-04,0.9422222375869751,0.2731325924396515,0.2731325924396515
939,1.0,0.018044207245111465,0.018044207245111465,1e-04,0.9408888816833496,0.2873905301094055,0.2873905301094055
940,1.0,0.01800736039876938,0.01800736039876938,1e-04,0.9422222375869751,0.2862969934940338,0.2862969934940338
941,1.0,0.01791246049106121,0.01791246049106121,1e-04,0.9422222375869751,0.2783506512641907,0.2783506512641907
942,1.0,0.017712904140353203,0.017712904140353203,1e-04,0.9426666498184204,0.28089165687561035,0.28089165687561035
943,1.0,0.017525149509310722,0.017525149509310722,1e-04,0.9419999718666077,0.2788219749927521,0.2788219749927521
944,1.0,0.017388327047228813,0.017388327047228813,1e-04,0.9419999718666077,0.28440016508102417,0.28440016508102417
945,1.0,0.01739356853067875,0.01739356853067875,1e-04,0.9424444437026978,0.2787628173828125,0.2787628173828125
946,1.0,0.017533646896481514,0.017533646896481514,1e-04,0.9413333535194397,0.28374913334846497,0.28374913334846497
947,1.0,0.01767176203429699,0.01767176203429699,1e-04,0.9422222375869751,0.28281885385513306,0.28281885385513306
948,1.0,0.017694516107439995,0.017694516107439995,1e-04,0.941777765750885,0.2842547595500946,0.2842547595500946
949,1.0,0.017567826434969902,0.017567826434969902,1e-04,0.9424444437026978,0.27851954102516174,0.27851954102516174
950,1.0,0.017291277647018433,0.017291277647018433,1e-04,0.9419999718666077,0.28531205654144287,0.28531205654144287
951,1.0,0.01713072694838047,0.01713072694838047,1e-04,0.9424444437026978,0.27686041593551636,0.27686041593551636
952,1.0,0.017071198672056198,0.017071198672056198,1e-04,0.9422222375869751,0.2848024070262909,0.2848024070262909
953,1.0,0.017095183953642845,0.017095183953642845,1e-04,0.9419999718666077,0.27905359864234924,0.27905359864234924
954,1.0,0.01707272417843342,0.01707272417843342,1e-04,0.941777765750885,0.2753041684627533,0.2753041684627533
955,1.0,0.017039820551872253,0.017039820551872253,1e-04,0.9419999718666077,0.2813415825366974,0.2813415825366974
956,1.0,0.017076600342988968,0.017076600342988968,1e-04,0.9419999718666077,0.2704761326313019,0.2704761326313019
957,1.0,0.017103198915719986,0.017103198915719986,1e-04,0.9419999718666077,0.28192946314811707,0.28192946314811707
958,1.0,0.017049657180905342,0.017049657180905342,1e-04,0.9415555596351624,0.26755523681640625,0.26755523681640625
959,1.0,0.01690405048429966,0.01690405048429966,1e-04,0.9419999718666077,0.27656471729278564,0.27656471729278564
960,1.0,0.01675579510629177,0.01675579510629177,1e-04,0.9424444437026978,0.2765721380710602,0.2765721380710602
961,1.0,0.01673012413084507,0.01673012413084507,1e-04,0.9422222375869751,0.26974791288375854,0.26974791288375854
962,1.0,0.016729556024074554,0.016729556024074554,1e-04,0.9422222375869751,0.2729797661304474,0.2729797661304474
963,1.0,0.016667844727635384,0.016667844727635384,1e-04,0.9422222375869751,0.27061864733695984,0.27061864733695984
964,1.0,0.01656152494251728,0.01656152494251728,1e-04,0.9419999718666077,0.27183476090431213,0.27183476090431213
965,1.0,0.016473762691020966,0.016473762691020966,1e-04,0.941777765750885,0.2709767818450928,0.2709767818450928
966,1.0,0.016430487856268883,0.016430487856268883,1e-04,0.9413333535194397,0.2658883035182953,0.2658883035182953
