epoch,accuracy,categorical_crossentropy,loss,lr,val_accuracy,val_categorical_crossentropy,val_loss
0,0.3540000021457672,1.4197344779968262,1.4197344779968262,0.001,0.5837777853012085,1.6008161306381226,1.6008161306381226
1,0.8059999942779541,0.9548395872116089,0.9548395872116089,0.001,0.5837777853012085,1.5931801795959473,1.5931801795959473
2,0.878000020980835,0.7490062713623047,0.7490062713623047,0.001,0.63355553150177,1.5856021642684937,1.5856021642684937
3,0.8880000114440918,0.645583987236023,0.645583987236023,0.001,0.8519999980926514,1.5789120197296143,1.5789120197296143
4,0.8920000195503235,0.5792557001113892,0.5792557001113892,0.001,0.8857777714729309,1.5733357667922974,1.5733357667922974
5,0.8999999761581421,0.5347850918769836,0.5347850918769836,0.001,0.8764444589614868,1.5684796571731567,1.5684796571731567
6,0.8999999761581421,0.5020462274551392,0.5020462274551392,0.001,0.8251110911369324,1.5642764568328857,1.5642764568328857
7,0.9039999842643738,0.47405555844306946,0.47405555844306946,0.001,0.6693333387374878,1.5608843564987183,1.5608843564987183
8,0.9100000262260437,0.4488653242588043,0.4488653242588043,0.001,0.3986666798591614,1.5582791566848755,1.5582791566848755
9,0.9120000004768372,0.42804116010665894,0.42804116010665894,0.001,0.3522222340106964,1.5562878847122192,1.5562878847122192
10,0.9120000004768372,0.41123995184898376,0.41123995184898376,0.001,0.3531111180782318,1.5547679662704468,1.5547679662704468
11,0.9120000004768372,0.39684656262397766,0.39684656262397766,0.001,0.35422220826148987,1.553625226020813,1.553625226020813
12,0.9160000085830688,0.3843213617801666,0.3843213617801666,0.001,0.35422220826148987,1.5528055429458618,1.5528055429458618
13,0.9200000166893005,0.37389883399009705,0.37389883399009705,0.001,0.35333332419395447,1.5521996021270752,1.5521996021270752
14,0.921999990940094,0.3644510507583618,0.3644510507583618,0.001,0.35333332419395447,1.5518159866333008,1.5518159866333008
15,0.921999990940094,0.3553498387336731,0.3553498387336731,0.001,0.35333332419395447,1.5517505407333374,1.5517505407333374
16,0.921999990940094,0.34683704376220703,0.34683704376220703,0.001,0.35333332419395447,1.5520658493041992,1.5520658493041992
17,0.9240000247955322,0.3387977182865143,0.3387977182865143,0.001,0.35333332419395447,1.552844524383545,1.552844524383545
18,0.9259999990463257,0.33116576075553894,0.33116576075553894,0.001,0.35333332419395447,1.554093599319458,1.554093599319458
19,0.9259999990463257,0.32414376735687256,0.32414376735687256,0.001,0.35333332419395447,1.5557328462600708,1.5557328462600708
20,0.9279999732971191,0.31771722435951233,0.31771722435951233,0.001,0.35333332419395447,1.5577967166900635,1.5577967166900635
21,0.9279999732971191,0.31166717410087585,0.31166717410087585,0.001,0.35333332419395447,1.560307264328003,1.560307264328003
22,0.9279999732971191,0.3060581684112549,0.3060581684112549,0.001,0.35333332419395447,1.5632301568984985,1.5632301568984985
23,0.9279999732971191,0.3008754551410675,0.3008754551410675,0.001,0.35333332419395447,1.566440224647522,1.566440224647522
24,0.9279999732971191,0.2958420515060425,0.2958420515060425,0.001,0.35333332419395447,1.5697510242462158,1.5697510242462158
25,0.9300000071525574,0.2908179461956024,0.2908179461956024,0.001,0.35333332419395447,1.5731230974197388,1.5731230974197388
26,0.9319999814033508,0.28594663739204407,0.28594663739204407,0.001,0.35333332419395447,1.5765419006347656,1.5765419006347656
27,0.9319999814033508,0.2811465859413147,0.2811465859413147,0.001,0.35333332419395447,1.580098032951355,1.580098032951355
28,0.9319999814033508,0.2764360308647156,0.2764360308647156,0.001,0.35333332419395447,1.583868384361267,1.583868384361267
29,0.9319999814033508,0.27185264229774475,0.27185264229774475,0.001,0.35333332419395447,1.5878574848175049,1.5878574848175049
30,0.9319999814033508,0.2673756182193756,0.2673756182193756,0.001,0.35333332419395447,1.5920323133468628,1.5920323133468628
31,0.9319999814033508,0.26293185353279114,0.26293185353279114,0.001,0.35333332419395447,1.596356987953186,1.596356987953186
32,0.9319999814033508,0.2586623430252075,0.2586623430252075,0.001,0.35333332419395447,1.6007832288742065,1.6007832288742065
33,0.9319999814033508,0.2546202838420868,0.2546202838420868,0.001,0.35333332419395447,1.605286955833435,1.605286955833435
34,0.9340000152587891,0.25074899196624756,0.25074899196624756,0.001,0.35333332419395447,1.6100144386291504,1.6100144386291504
35,0.9340000152587891,0.24699491262435913,0.24699491262435913,0.001,0.35333332419395447,1.6149262189865112,1.6149262189865112
36,0.9340000152587891,0.243282750248909,0.243282750248909,0.001,0.35333332419395447,1.6202555894851685,1.6202555894851685
37,0.9380000233650208,0.2395952045917511,0.2395952045917511,0.001,0.35333332419395447,1.626064658164978,1.626064658164978
38,0.9380000233650208,0.2360091358423233,0.2360091358423233,0.001,0.35333332419395447,1.6320931911468506,1.6320931911468506
39,0.9380000233650208,0.2326049953699112,0.2326049953699112,0.001,0.35333332419395447,1.6383306980133057,1.6383306980133057
40,0.9380000233650208,0.2292495220899582,0.2292495220899582,0.001,0.35333332419395447,1.6447457075119019,1.6447457075119019
41,0.9380000233650208,0.22588162124156952,0.22588162124156952,0.001,0.35333332419395447,1.651364803314209,1.651364803314209
42,0.9380000233650208,0.22258926928043365,0.22258926928043365,0.001,0.3526666760444641,1.6581724882125854,1.6581724882125854
43,0.9380000233650208,0.21936996281147003,0.21936996281147003,0.001,0.09799999743700027,1.6650735139846802,1.6650735139846802
44,0.9380000233650208,0.21629872918128967,0.21629872918128967,0.001,0.019333332777023315,1.6720666885375977,1.6720666885375977
45,0.9380000233650208,0.21339121460914612,0.21339121460914612,0.001,0.019111111760139465,1.6789416074752808,1.6789416074752808
46,0.9399999976158142,0.2105373591184616,0.2105373591184616,0.001,0.019111111760139465,1.6858431100845337,1.6858431100845337
47,0.9419999718666077,0.2077503353357315,0.2077503353357315,0.001,0.019111111760139465,1.6924980878829956,1.6924980878829956
48,0.9419999718666077,0.20502468943595886,0.20502468943595886,0.001,0.019111111760139465,1.6988810300827026,1.6988810300827026
49,0.9440000057220459,0.20253416895866394,0.20253416895866394,0.001,0.019111111760139465,1.7045413255691528,1.7045413255691528
50,0.9459999799728394,0.2007180154323578,0.2007180154323578,0.001,0.019111111760139465,1.7108314037322998,1.7108314037322998
51,0.9459999799728394,0.19947054982185364,0.19947054982185364,0.001,0.019111111760139465,1.7158653736114502,1.7158653736114502
52,0.9459999799728394,0.1982414275407791,0.1982414275407791,0.001,0.019111111760139465,1.721994400024414,1.721994400024414
53,0.9459999799728394,0.19301602244377136,0.19301602244377136,0.001,0.019111111760139465,1.7278329133987427,1.7278329133987427
54,0.9459999799728394,0.19130024313926697,0.19130024313926697,0.001,0.019111111760139465,1.7331812381744385,1.7331812381744385
55,0.9480000138282776,0.19117771089076996,0.19117771089076996,0.001,0.019111111760139465,1.7398399114608765,1.7398399114608765
56,0.9520000219345093,0.18646661937236786,0.18646661937236786,0.001,0.019111111760139465,1.745679259300232,1.745679259300232
57,0.9520000219345093,0.18344305455684662,0.18344305455684662,0.001,0.019111111760139465,1.7514082193374634,1.7514082193374634
58,0.949999988079071,0.1828276664018631,0.1828276664018631,0.001,0.019111111760139465,1.758460283279419,1.758460283279419
59,0.9520000219345093,0.1810844987630844,0.1810844987630844,0.001,0.019111111760139465,1.764693260192871,1.764693260192871
60,0.949999988079071,0.17847013473510742,0.17847013473510742,0.001,0.019111111760139465,1.7720402479171753,1.7720402479171753
61,0.9520000219345093,0.17534281313419342,0.17534281313419342,0.001,0.019111111760139465,1.778623104095459,1.778623104095459
62,0.9520000219345093,0.17279526591300964,0.17279526591300964,0.001,0.019111111760139465,1.784947156906128,1.784947156906128
63,0.9520000219345093,0.17104461789131165,0.17104461789131165,0.001,0.019111111760139465,1.7919093370437622,1.7919093370437622
64,0.9539999961853027,0.17036451399326324,0.17036451399326324,0.001,0.019111111760139465,1.797356367111206,1.797356367111206
65,0.9520000219345093,0.1735403835773468,0.1735403835773468,0.0005,0.019111111760139465,1.802786111831665,1.802786111831665
66,0.9539999961853027,0.16639266908168793,0.16639266908168793,0.0005,0.019111111760139465,1.8078347444534302,1.8078347444534302
67,0.9539999961853027,0.17131954431533813,0.17131954431533813,0.0005,0.019111111760139465,1.8111587762832642,1.8111587762832642
68,0.9539999961853027,0.16467636823654175,0.16467636823654175,0.0005,0.019111111760139465,1.8142313957214355,1.8142313957214355
69,0.9539999961853027,0.16775622963905334,0.16775622963905334,0.0005,0.019111111760139465,1.8180103302001953,1.8180103302001953
70,0.9539999961853027,0.1634700894355774,0.1634700894355774,0.0005,0.019111111760139465,1.8220672607421875,1.8220672607421875
71,0.9559999704360962,0.16415339708328247,0.16415339708328247,0.0005,0.019333332777023315,1.8250035047531128,1.8250035047531128
72,0.9559999704360962,0.16234812140464783,0.16234812140464783,0.0005,0.019111111760139465,1.8270132541656494,1.8270132541656494
73,0.9539999961853027,0.16087906062602997,0.16087906062602997,0.0005,0.019111111760139465,1.8296363353729248,1.8296363353729248
74,0.9539999961853027,0.16080960631370544,0.16080960631370544,0.0005,0.019555555656552315,1.8333508968353271,1.8333508968353271
75,0.9559999704360962,0.15812425315380096,0.15812425315380096,0.0005,0.019999999552965164,1.8369569778442383,1.8369569778442383
76,0.9559999704360962,0.15907293558120728,0.15907293558120728,0.0005,0.02311111055314541,1.8398287296295166,1.8398287296295166
77,0.9559999704360962,0.15595856308937073,0.15595856308937073,0.0005,0.03533333167433739,1.84284508228302,1.84284508228302
78,0.9539999961853027,0.15692098438739777,0.15692098438739777,0.0005,0.047333333641290665,1.846732258796692,1.846732258796692
79,0.9559999704360962,0.15400032699108124,0.15400032699108124,0.0005,0.07422222197055817,1.8503105640411377,1.8503105640411377
80,0.9559999704360962,0.1547773778438568,0.1547773778438568,0.0005,0.1411111056804657,1.852712869644165,1.852712869644165
81,0.9580000042915344,0.15220756828784943,0.15220756828784943,0.0005,0.24199999868869781,1.8553904294967651,1.8553904294967651
82,0.9580000042915344,0.15254293382167816,0.15254293382167816,0.0005,0.3311111032962799,1.8588719367980957,1.8588719367980957
83,0.9559999704360962,0.1504184603691101,0.1504184603691101,0.0005,0.3535555601119995,1.8618606328964233,1.8618606328964233
84,0.9559999704360962,0.1503964513540268,0.1503964513540268,0.0005,0.35333332419395447,1.8635039329528809,1.8635039329528809
85,0.9559999704360962,0.14875560998916626,0.14875560998916626,0.0005,0.35333332419395447,1.8653632402420044,1.8653632402420044
86,0.9559999704360962,0.1480080783367157,0.1480080783367157,0.0005,0.35333332419395447,1.8678839206695557,1.8678839206695557
87,0.9580000042915344,0.1472625434398651,0.1472625434398651,0.0005,0.35333332419395447,1.8698341846466064,1.8698341846466064
88,0.9580000042915344,0.14573116600513458,0.14573116600513458,0.0005,0.35333332419395447,1.8714936971664429,1.8714936971664429
89,0.9580000042915344,0.14558567106723785,0.14558567106723785,0.0005,0.35333332419395447,1.874190092086792,1.874190092086792
90,0.9580000042915344,0.1439121961593628,0.1439121961593628,0.0005,0.35333332419395447,1.876461148262024,1.876461148262024
91,0.9580000042915344,0.143704354763031,0.143704354763031,0.0005,0.35333332419395447,1.8776558637619019,1.8776558637619019
92,0.9599999785423279,0.14263421297073364,0.14263421297073364,0.0005,0.35333332419395447,1.879646897315979,1.879646897315979
93,0.9580000042915344,0.14131928980350494,0.14131928980350494,0.0005,0.35333332419395447,1.882067322731018,1.882067322731018
94,0.9599999785423279,0.14098908007144928,0.14098908007144928,0.0005,0.35333332419395447,1.883374571800232,1.883374571800232
95,0.9599999785423279,0.13969214260578156,0.13969214260578156,0.0005,0.35333332419395447,1.884928822517395,1.884928822517395
96,0.9599999785423279,0.1387852132320404,0.1387852132320404,0.0005,0.35333332419395447,1.8871657848358154,1.8871657848358154
97,0.9620000123977661,0.1382570117712021,0.1382570117712021,0.0005,0.35333332419395447,1.8885273933410645,1.8885273933410645
98,0.9599999785423279,0.13716179132461548,0.13716179132461548,0.0005,0.35333332419395447,1.89047110080719,1.89047110080719
99,0.9620000123977661,0.13611122965812683,0.13611122965812683,0.0005,0.35333332419395447,1.8924554586410522,1.8924554586410522
100,0.9620000123977661,0.1354665905237198,0.1354665905237198,0.0005,0.35333332419395447,1.8933758735656738,1.8933758735656738
101,0.9639999866485596,0.13469165563583374,0.13469165563583374,0.0005,0.35333332419395447,1.8954681158065796,1.8954681158065796
102,0.9620000123977661,0.13366776704788208,0.13366776704788208,0.0005,0.35333332419395447,1.8968901634216309,1.8968901634216309
103,0.9620000123977661,0.13267868757247925,0.13267868757247925,0.0005,0.35333332419395447,1.8979283571243286,1.8979283571243286
104,0.9639999866485596,0.13199150562286377,0.13199150562286377,0.0005,0.35333332419395447,1.8998643159866333,1.8998643159866333
105,0.9620000123977661,0.1313265562057495,0.1313265562057495,0.0005,0.35333332419395447,1.9003491401672363,1.9003491401672363
106,0.9639999866485596,0.13073255121707916,0.13073255121707916,0.0005,0.35333332419395447,1.9024088382720947,1.9024088382720947
107,0.9620000123977661,0.12976554036140442,0.12976554036140442,0.0005,0.35333332419395447,1.9031634330749512,1.9031634330749512
108,0.9639999866485596,0.12877660989761353,0.12877660989761353,0.0005,0.35333332419395447,1.9050517082214355,1.9050517082214355
109,0.9639999866485596,0.12779027223587036,0.12779027223587036,0.0005,0.35333332419395447,1.9052038192749023,1.9052038192749023
110,0.9639999866485596,0.12684482336044312,0.12684482336044312,0.0005,0.35333332419395447,1.9064058065414429,1.9064058065414429
111,0.9639999866485596,0.12614277005195618,0.12614277005195618,0.0005,0.35333332419395447,1.9076926708221436,1.9076926708221436
112,0.9639999866485596,0.12543374300003052,0.12543374300003052,0.0005,0.35333332419395447,1.9103176593780518,1.9103176593780518
113,0.9639999866485596,0.12517397105693817,0.12517397105693817,0.0005,0.35333332419395447,1.910155177116394,1.910155177116394
114,0.9639999866485596,0.12587004899978638,0.12587004899978638,0.0005,0.35333332419395447,1.912610650062561,1.912610650062561
115,0.9620000123977661,0.12599167227745056,0.12599167227745056,0.00025,0.35333332419395447,1.9130237102508545,1.9130237102508545
116,0.9639999866485596,0.12218611687421799,0.12218611687421799,0.00025,0.35333332419395447,1.9129570722579956,1.9129570722579956
117,0.9639999866485596,0.1242971196770668,0.1242971196770668,0.00025,0.35333332419395447,1.9144303798675537,1.9144303798675537
118,0.9639999866485596,0.1215355172753334,0.1215355172753334,0.00025,0.35333332419395447,1.916025161743164,1.916025161743164
119,0.9639999866485596,0.12290464341640472,0.12290464341640472,0.00025,0.35333332419395447,1.9160830974578857,1.9160830974578857
120,0.9639999866485596,0.1208435520529747,0.1208435520529747,0.00025,0.35333332419395447,1.9154726266860962,1.9154726266860962
121,0.9639999866485596,0.12141074985265732,0.12141074985265732,0.00025,0.35333332419395447,1.916200041770935,1.916200041770935
122,0.9639999866485596,0.12021281570196152,0.12021281570196152,0.00025,0.35333332419395447,1.917975902557373,1.917975902557373
123,0.9639999866485596,0.12004216760396957,0.12004216760396957,0.00025,0.35333332419395447,1.918194055557251,1.918194055557251
124,0.9639999866485596,0.1193181574344635,0.1193181574344635,0.00025,0.35333332419395447,1.917728066444397,1.917728066444397
125,0.9639999866485596,0.11890168488025665,0.11890168488025665,0.00025,0.35333332419395447,1.9182415008544922,1.9182415008544922
126,0.9639999866485596,0.1184375211596489,0.1184375211596489,0.00025,0.35333332419395447,1.9194132089614868,1.9194132089614868
127,0.9639999866485596,0.1177714616060257,0.1177714616060257,0.00025,0.35333332419395447,1.9195507764816284,1.9195507764816284
128,0.9639999866485596,0.11739327758550644,0.11739327758550644,0.00025,0.35333332419395447,1.9182395935058594,1.9182395935058594
129,0.9639999866485596,0.11684184521436691,0.11684184521436691,0.00025,0.35333332419395447,1.917807698249817,1.9178074598312378
130,0.9639999866485596,0.11637546867132187,0.11637546867132187,0.00025,0.35333332419395447,1.9178717136383057,1.9178717136383057
131,0.9639999866485596,0.11584018915891647,0.11584018915891647,0.00025,0.35333332419395447,1.9171080589294434,1.9171080589294434
132,0.9660000205039978,0.11535496264696121,0.11535496264696121,0.00025,0.35333332419395447,1.9155850410461426,1.9155850410461426
133,0.9639999866485596,0.11495904624462128,0.11495904624462128,0.00025,0.35333332419395447,1.915182113647461,1.915182113647461
134,0.9639999866485596,0.11428942531347275,0.11428942531347275,0.00025,0.35333332419395447,1.9150639772415161,1.9150639772415161
135,0.9660000205039978,0.11411572247743607,0.11411572247743607,0.00025,0.35333332419395447,1.913824200630188,1.913824200630188
136,0.9660000205039978,0.11321810632944107,0.11321810632944107,0.00025,0.35333332419395447,1.912178874015808,1.912178874015808
137,0.9660000205039978,0.11323195695877075,0.11323195695877075,0.00025,0.35333332419395447,1.9116182327270508,1.9116182327270508
138,0.9660000205039978,0.11228805780410767,0.11228805780410767,0.00025,0.35333332419395447,1.910629391670227,1.910629391670227
139,0.9660000205039978,0.11212727427482605,0.11212727427482605,0.00025,0.35333332419395447,1.9081380367279053,1.9081380367279053
140,0.9660000205039978,0.11153137683868408,0.11153137683868408,0.00025,0.35333332419395447,1.9064756631851196,1.9064756631851196
141,0.9660000205039978,0.11096567660570145,0.11096567660570145,0.00025,0.35333332419395447,1.9052391052246094,1.9052391052246094
142,0.9660000205039978,0.11072531342506409,0.11072531342506409,0.00025,0.35333332419395447,1.9029220342636108,1.90292227268219
143,0.9660000205039978,0.1098802387714386,0.1098802387714386,0.00025,0.35333332419395447,1.9010494947433472,1.9010494947433472
144,0.9660000205039978,0.10970611125230789,0.10970611125230789,0.00025,0.35333332419395447,1.899827241897583,1.899827241897583
145,0.9660000205039978,0.10904628038406372,0.10904628038406372,0.00025,0.35333332419395447,1.8981890678405762,1.8981890678405762
146,0.9660000205039978,0.10847406834363937,0.10847406834363937,0.00025,0.35333332419395447,1.8960767984390259,1.8960767984390259
147,0.9660000205039978,0.10817563533782959,0.10817563533782959,0.00025,0.35333332419395447,1.894928216934204,1.894927978515625
148,0.9660000205039978,0.10753843933343887,0.10753843933343887,0.00025,0.35333332419395447,1.8928968906402588,1.8928968906402588
149,0.9660000205039978,0.10698278248310089,0.10698278248310089,0.00025,0.35333332419395447,1.8912261724472046,1.8912261724472046
150,0.9660000205039978,0.1067747250199318,0.1067747250199318,0.00025,0.35333332419395447,1.8891733884811401,1.8891733884811401
151,0.9660000205039978,0.10617802292108536,0.10617802292108536,0.00025,0.35333332419395447,1.8869274854660034,1.8869274854660034
152,0.9660000205039978,0.1055765151977539,0.1055765151977539,0.00025,0.35333332419395447,1.884357213973999,1.884357213973999
153,0.9660000205039978,0.105081707239151,0.105081707239151,0.00025,0.35333332419395447,1.8821052312850952,1.8821052312850952
154,0.9679999947547913,0.10473588854074478,0.10473588854074478,0.00025,0.35333332419395447,1.8794783353805542,1.8794783353805542
155,0.9679999947547913,0.10415882617235184,0.10415882617235184,0.00025,0.35333332419395447,1.8762011528015137,1.8762011528015137
156,0.9679999947547913,0.10366831719875336,0.10366831719875336,0.00025,0.35333332419395447,1.8735321760177612,1.8735321760177612
157,0.9679999947547913,0.10312449932098389,0.10312449932098389,0.00025,0.35333332419395447,1.870059847831726,1.870059847831726
158,0.9679999947547913,0.10274983197450638,0.10274983197450638,0.00025,0.35333332419395447,1.867192268371582,1.867192268371582
159,0.9679999947547913,0.10213182121515274,0.10213182121515274,0.00025,0.35333332419395447,1.8639804124832153,1.8639804124832153
160,0.9679999947547913,0.10176908224821091,0.10176908224821091,0.00025,0.35333332419395447,1.8603140115737915,1.8603140115737915
161,0.9679999947547913,0.10117519646883011,0.10117519646883011,0.00025,0.35333332419395447,1.8574153184890747,1.8574153184890747
162,0.9679999947547913,0.10077060759067535,0.10077060759067535,0.00025,0.35333332419395447,1.8532291650772095,1.8532291650772095
163,0.9679999947547913,0.1002301573753357,0.1002301573753357,0.00025,0.35333332419395447,1.849524736404419,1.849524736404419
164,0.9700000286102295,0.09973559528589249,0.09973559528589249,0.00025,0.35333332419395447,1.8458847999572754,1.8458847999572754
165,0.9679999947547913,0.09931065142154694,0.09931065142154694,0.000125,0.35333332419395447,1.8436959981918335,1.8436959981918335
166,0.9700000286102295,0.0989365354180336,0.0989365354180336,0.000125,0.35333332419395447,1.8417773246765137,1.8417773246765137
167,0.9700000286102295,0.09872984886169434,0.09872984886169434,0.000125,0.35333332419395447,1.8401185274124146,1.8401185274124146
168,0.9700000286102295,0.09842818230390549,0.09842818230390549,0.000125,0.35333332419395447,1.8384010791778564,1.8384010791778564
169,0.9700000286102295,0.09819001704454422,0.09819001704454422,0.000125,0.35333332419395447,1.8363189697265625,1.8363189697265625
170,0.9700000286102295,0.09793377667665482,0.09793377667665482,0.000125,0.35333332419395447,1.834316372871399,1.834316372871399
171,0.9700000286102295,0.09766324609518051,0.09766324609518051,0.000125,0.35333332419395447,1.8325620889663696,1.8325620889663696
172,0.9700000286102295,0.09741462767124176,0.09741462767124176,0.000125,0.35333332419395447,1.8304051160812378,1.8304051160812378
173,0.9700000286102295,0.0971255972981453,0.0971255972981453,0.000125,0.35333332419395447,1.8279019594192505,1.8279019594192505
174,0.9700000286102295,0.0968923270702362,0.0968923270702362,0.000125,0.35333332419395447,1.8255627155303955,1.8255627155303955
175,0.9700000286102295,0.09660890698432922,0.09660890698432922,0.000125,0.35333332419395447,1.8235905170440674,1.8235905170440674
176,0.9700000286102295,0.09636881947517395,0.09636881947517395,0.000125,0.35333332419395447,1.8211313486099243,1.8211313486099243
177,0.9700000286102295,0.09608018398284912,0.09608018398284912,0.000125,0.35333332419395447,1.819120168685913,1.819120168685913
178,0.9700000286102295,0.0958278551697731,0.0958278551697731,0.000125,0.35333332419395447,1.817604899406433,1.817604899406433
179,0.9700000286102295,0.09558101743459702,0.09558101743459702,0.000125,0.35333332419395447,1.815994143486023,1.815994143486023
180,0.9700000286102295,0.09528591483831406,0.09528591483831406,0.000125,0.35333332419395447,1.8144179582595825,1.8144179582595825
181,0.9700000286102295,0.09505555778741837,0.09505555778741837,0.000125,0.35333332419395447,1.813202142715454,1.813202142715454
182,0.9700000286102295,0.0947674959897995,0.0947674959897995,0.000125,0.35333332419395447,1.8115215301513672,1.8115215301513672
183,0.9700000286102295,0.0944923684000969,0.0944923684000969,0.000125,0.35333332419395447,1.8099334239959717,1.8099334239959717
184,0.9700000286102295,0.09423863142728806,0.09423863142728806,0.000125,0.35333332419395447,1.8087639808654785,1.8087639808654785
185,0.9700000286102295,0.09395883977413177,0.09395883977413177,0.000125,0.35333332419395447,1.8072561025619507,1.8072561025619507
186,0.9700000286102295,0.0936904028058052,0.0936904028058052,0.000125,0.35333332419395447,1.8058197498321533,1.8058197498321533
187,0.9700000286102295,0.09345196187496185,0.09345196187496185,0.000125,0.35333332419395447,1.8044965267181396,1.8044965267181396
188,0.9700000286102295,0.09317750483751297,0.09317750483751297,0.000125,0.35333332419395447,1.8030250072479248,1.8030250072479248
189,0.9700000286102295,0.0929110124707222,0.0929110124707222,0.000125,0.35333332419395447,1.801792025566101,1.801792025566101
190,0.9700000286102295,0.0926307737827301,0.0926307737827301,0.000125,0.35333332419395447,1.8005191087722778,1.8005191087722778
191,0.9700000286102295,0.09238144755363464,0.09238144755363464,0.000125,0.35333332419395447,1.7996448278427124,1.7996448278427124
192,0.9700000286102295,0.0920986756682396,0.0920986756682396,0.000125,0.35333332419395447,1.7985494136810303,1.7985494136810303
193,0.9700000286102295,0.09181784093379974,0.09181784093379974,0.000125,0.35333332419395447,1.7974101305007935,1.7974101305007935
194,0.972000002861023,0.09151710569858551,0.09151710569858551,0.000125,0.35333332419395447,1.7963433265686035,1.7963433265686035
195,0.972000002861023,0.0912947729229927,0.0912947729229927,0.000125,0.35333332419395447,1.7952054738998413,1.7952054738998413
196,0.972000002861023,0.09102627635002136,0.09102627635002136,0.000125,0.35333332419395447,1.7943828105926514,1.7943826913833618
197,0.972000002861023,0.09078619629144669,0.09078619629144669,0.000125,0.35333332419395447,1.7929718494415283,1.7929718494415283
198,0.972000002861023,0.09042485803365707,0.09042485803365707,0.000125,0.35333332419395447,1.7916229963302612,1.7916229963302612
199,0.972000002861023,0.09018918126821518,0.09018918126821518,0.000125,0.35333332419395447,1.790645718574524,1.790645718574524
200,0.972000002861023,0.08989100903272629,0.08989100903272629,0.000125,0.35288888216018677,1.7891284227371216,1.7891284227371216
201,0.972000002861023,0.08966995030641556,0.08966995030641556,0.000125,0.35244444012641907,1.7876999378204346,1.7876999378204346
202,0.972000002861023,0.08939416706562042,0.08939416706562042,0.000125,0.35244444012641907,1.7865962982177734,1.7865962982177734
203,0.972000002861023,0.08912954479455948,0.08912954479455948,0.000125,0.35244444012641907,1.7849236726760864,1.7849236726760864
204,0.972000002861023,0.08880210667848587,0.08880210667848587,0.000125,0.35155555605888367,1.7831686735153198,1.7831686735153198
205,0.972000002861023,0.08852426707744598,0.08852426707744598,0.000125,0.35066667199134827,1.7821664810180664,1.7821664810180664
206,0.972000002861023,0.08830862492322922,0.08830862492322922,0.000125,0.347777783870697,1.780019998550415,1.780019998550415
207,0.972000002861023,0.088058240711689,0.088058240711689,0.000125,0.34288889169692993,1.778612494468689,1.778612494468689
208,0.972000002861023,0.08777087926864624,0.08777087926864624,0.000125,0.33666667342185974,1.7767435312271118,1.7767436504364014
209,0.972000002861023,0.08749690651893616,0.08749690651893616,0.000125,0.32644444704055786,1.7745742797851562,1.7745742797851562
210,0.972000002861023,0.08721209317445755,0.08721209317445755,0.000125,0.3237777650356293,1.7728958129882812,1.7728958129882812
211,0.972000002861023,0.08683426678180695,0.08683426678180695,0.000125,0.3144444525241852,1.7709181308746338,1.7709181308746338
212,0.972000002861023,0.08654755353927612,0.08654755353927612,0.000125,0.301111102104187,1.7688586711883545,1.7688586711883545
213,0.972000002861023,0.08626118302345276,0.08626118302345276,0.000125,0.2924444377422333,1.7672626972198486,1.7672626972198486
214,0.972000002861023,0.08598481863737106,0.08598481863737106,0.000125,0.27533334493637085,1.7655315399169922,1.7655315399169922
215,0.972000002861023,0.0856388583779335,0.0856388583779335,1e-04,0.2517777681350708,1.7639405727386475,1.7639405727386475
216,0.972000002861023,0.08544757217168808,0.08544757217168808,1e-04,0.23399999737739563,1.7625646591186523,1.7625646591186523
217,0.9739999771118164,0.08520090579986572,0.08520090579986572,1e-04,0.2133333384990692,1.7609142065048218,1.7609142065048218
218,0.9739999771118164,0.08497167378664017,0.08497167378664017,1e-04,0.193555548787117,1.7594006061553955,1.7594006061553955
219,0.9739999771118164,0.08473832905292511,0.08473832905292511,1e-04,0.1742222160100937,1.7577927112579346,1.7577927112579346
220,0.9739999771118164,0.08453507721424103,0.08453507721424103,1e-04,0.15422222018241882,1.7561659812927246,1.7561659812927246
221,0.9739999771118164,0.08431209623813629,0.08431209623813629,1e-04,0.14244444668293,1.7547364234924316,1.7547364234924316
222,0.9739999771118164,0.08409077674150467,0.08409077674150467,1e-04,0.13244444131851196,1.753292441368103,1.753292441368103
223,0.9739999771118164,0.08385929465293884,0.08385929465293884,1e-04,0.12288888543844223,1.7512362003326416,1.7512362003326416
224,0.9739999771118164,0.08360473811626434,0.08360473811626434,1e-04,0.11266666650772095,1.7493584156036377,1.7493584156036377
225,0.9739999771118164,0.08336985856294632,0.08336985856294632,1e-04,0.10488888621330261,1.747776985168457,1.747776985168457
226,0.9739999771118164,0.0831618681550026,0.0831618681550026,1e-04,0.09511110931634903,1.7457811832427979,1.7457811832427979
227,0.9739999771118164,0.08293603360652924,0.08293603360652924,1e-04,0.09111110866069794,1.7437807321548462,1.7437807321548462
228,0.9739999771118164,0.08276306092739105,0.08276306092739105,1e-04,0.0833333358168602,1.7427918910980225,1.7427918910980225
229,0.9739999771118164,0.0826222151517868,0.0826222151517868,1e-04,0.07711111009120941,1.7410337924957275,1.7410337924957275
230,0.9739999771118164,0.08237557858228683,0.08237557858228683,1e-04,0.07244444638490677,1.7395178079605103,1.7395178079605103
231,0.9739999771118164,0.08219674229621887,0.08219674229621887,1e-04,0.06888888776302338,1.7384099960327148,1.7384099960327148
232,0.9739999771118164,0.08186313509941101,0.08186313509941101,1e-04,0.06555555760860443,1.737105131149292,1.737105131149292
233,0.9739999771118164,0.0815313309431076,0.0815313309431076,1e-04,0.06199999898672104,1.7354826927185059,1.7354826927185059
234,0.9739999771118164,0.08128338307142258,0.08128338307142258,1e-04,0.06177777796983719,1.7342529296875,1.7342529296875
235,0.9739999771118164,0.0810547024011612,0.0810547024011612,1e-04,0.05955555662512779,1.732836127281189,1.732836127281189
236,0.9739999771118164,0.08090319484472275,0.08090319484472275,1e-04,0.057777777314186096,1.7312158346176147,1.7312158346176147
237,0.9739999771118164,0.08080810308456421,0.08080810308456421,1e-04,0.0555555559694767,1.7303510904312134,1.7303510904312134
238,0.9739999771118164,0.08066783100366592,0.08066783100366592,1e-04,0.05444444343447685,1.7296034097671509,1.7296034097671509
239,0.9760000109672546,0.08035247772932053,0.08035247772932053,1e-04,0.0533333346247673,1.7282869815826416,1.7282869815826416
240,0.9739999771118164,0.0799669474363327,0.0799669474363327,1e-04,0.052222222089767456,1.7271370887756348,1.7271370887756348
241,0.9760000109672546,0.07967031002044678,0.07967031002044678,1e-04,0.05133333429694176,1.7259342670440674,1.7259342670440674
242,0.9760000109672546,0.07942351698875427,0.07942351698875427,1e-04,0.04911111295223236,1.724161982536316,1.724161982536316
243,0.9739999771118164,0.07921237498521805,0.07921237498521805,1e-04,0.04888888821005821,1.7229067087173462,1.7229067087173462
244,0.9760000109672546,0.07895766943693161,0.07895766943693161,1e-04,0.04800000041723251,1.7213486433029175,1.7213486433029175
245,0.9760000109672546,0.07875280827283859,0.07875280827283859,1e-04,0.047111112624406815,1.719509482383728,1.719509482383728
246,0.9760000109672546,0.0786515325307846,0.0786515325307846,1e-04,0.04555555433034897,1.7183825969696045,1.7183825969696045
247,0.9760000109672546,0.07849141210317612,0.07849141210317612,1e-04,0.04533333331346512,1.717370629310608,1.717370629310608
248,0.9760000109672546,0.07843922078609467,0.07843922078609467,1e-04,0.04355555400252342,1.7154589891433716,1.7154589891433716
249,0.9760000109672546,0.0782640352845192,0.0782640352845192,1e-04,0.04377777874469757,1.7141368389129639,1.7141368389129639
250,0.9760000109672546,0.07775478810071945,0.07775478810071945,1e-04,0.04355555400252342,1.7124674320220947,1.7124674320220947
251,0.9760000109672546,0.07737252861261368,0.07737252861261368,1e-04,0.04266666620969772,1.7099052667617798,1.7099052667617798
252,0.9760000109672546,0.07707087695598602,0.07707087695598602,1e-04,0.04244444519281387,1.7082840204238892,1.7082840204238892
253,0.9779999852180481,0.0768539309501648,0.0768539309501648,1e-04,0.042222220450639725,1.7066750526428223,1.7066750526428223
254,0.9760000109672546,0.07674910873174667,0.07674910873174667,1e-04,0.041777778416872025,1.7051911354064941,1.7051911354064941
255,0.9779999852180481,0.07682017236948013,0.07682017236948013,1e-04,0.04022222384810448,1.703416109085083,1.703416109085083
256,0.9760000109672546,0.07680846750736237,0.07680846750736237,1e-04,0.04044444486498833,1.7022883892059326,1.7022883892059326
257,0.9800000190734863,0.07636744529008865,0.07636744529008865,1e-04,0.03755555674433708,1.7001392841339111,1.7001392841339111
258,0.9760000109672546,0.07586108148097992,0.07586108148097992,1e-04,0.03688888996839523,1.6982834339141846,1.6982834339141846
259,0.9779999852180481,0.07542682439088821,0.07542682439088821,1e-04,0.036444444209337234,1.696035385131836,1.696035385131836
260,0.9800000190734863,0.07525455951690674,0.07525455951690674,1e-04,0.036666665226221085,1.6940745115280151,1.6940745115280151
261,0.9760000109672546,0.07519126683473587,0.07519126683473587,1e-04,0.03777777776122093,1.6931339502334595,1.6931339502334595
262,0.9800000190734863,0.07514787465333939,0.07514787465333939,1e-04,0.036444444209337234,1.6914889812469482,1.6914889812469482
263,0.9760000109672546,0.07502015680074692,0.07502015680074692,1e-04,0.03733333200216293,1.6900018453598022,1.6900018453598022
264,0.9800000190734863,0.07461657375097275,0.07461657375097275,1e-04,0.03488888964056969,1.6882941722869873,1.6882941722869873
265,0.9779999852180481,0.07418322563171387,0.07418322563171387,1e-04,0.035777777433395386,1.6873314380645752,1.6873314380645752
266,0.9800000190734863,0.07384981215000153,0.07384981215000153,1e-04,0.036666665226221085,1.6853947639465332,1.6853947639465332
267,0.9779999852180481,0.07355993241071701,0.07355993241071701,1e-04,0.03755555674433708,1.683797836303711,1.683797836303711
268,0.9779999852180481,0.07336601614952087,0.07336601614952087,1e-04,0.03822222352027893,1.6825767755508423,1.6825767755508423
269,0.9800000190734863,0.07326807081699371,0.07326807081699371,1e-04,0.03844444453716278,1.6804280281066895,1.6804280281066895
270,0.9760000109672546,0.07343913614749908,0.07343913614749908,1e-04,0.03955555707216263,1.6790237426757812,1.6790237426757812
271,0.9800000190734863,0.07355114072561264,0.07355114072561264,1e-04,0.03911111131310463,1.6766412258148193,1.6766412258148193
272,0.9760000109672546,0.07370845228433609,0.07370845228433609,1e-04,0.040888890624046326,1.675453543663025,1.675453543663025
273,0.9800000190734863,0.07268545776605606,0.07268545776605606,1e-04,0.04044444486498833,1.6733307838439941,1.6733307838439941
274,0.9800000190734863,0.07200770080089569,0.07200770080089569,1e-04,0.041333332657814026,1.6710015535354614,1.6710015535354614
275,0.9779999852180481,0.07195814698934555,0.07195814698934555,1e-04,0.042888887226581573,1.6689138412475586,1.6689138412475586
276,0.9800000190734863,0.07231168448925018,0.07231168448925018,1e-04,0.042888887226581573,1.666493535041809,1.666493535041809
277,0.9760000109672546,0.07222912460565567,0.07222912460565567,1e-04,0.04422222077846527,1.665799856185913,1.665799856185913
278,0.9800000190734863,0.07152345776557922,0.07152345776557922,1e-04,0.04399999976158142,1.6631771326065063,1.6631771326065063
279,0.9800000190734863,0.07090089470148087,0.07090089470148087,1e-04,0.04622222110629082,1.6616358757019043,1.6616358757019043
280,0.9800000190734863,0.07067440450191498,0.07067440450191498,1e-04,0.047555554658174515,1.6602015495300293,1.6602015495300293
281,0.9800000190734863,0.07072579115629196,0.07072579115629196,1e-04,0.04777777940034866,1.6578584909439087,1.6578584909439087
282,0.9779999852180481,0.07088815420866013,0.07088815420866013,1e-04,0.05044444277882576,1.656709909439087,1.656709909439087
283,0.9800000190734863,0.07058293372392654,0.07058293372392654,1e-04,0.05022222176194191,1.6550743579864502,1.6550743579864502
284,0.9800000190734863,0.06998919695615768,0.06998919695615768,1e-04,0.05022222176194191,1.6529991626739502,1.6529991626739502
285,0.9800000190734863,0.06953558325767517,0.06953558325767517,1e-04,0.04977777600288391,1.6506165266036987,1.6506165266036987
286,0.9800000190734863,0.06928896903991699,0.06928896903991699,1e-04,0.04933333396911621,1.6484272480010986,1.6484272480010986
287,0.9800000190734863,0.0692826583981514,0.0692826583981514,1e-04,0.05000000074505806,1.6467710733413696,1.6467710733413696
288,0.9800000190734863,0.06936189532279968,0.06936189532279968,1e-04,0.05022222176194191,1.6443496942520142,1.6443496942520142
289,0.9779999852180481,0.06933285295963287,0.06933285295963287,1e-04,0.05133333429694176,1.6429734230041504,1.6429734230041504
290,0.9800000190734863,0.06889403611421585,0.06889403611421585,1e-04,0.05066666752099991,1.640148401260376,1.640148401260376
291,0.9800000190734863,0.06831441074609756,0.06831441074609756,1e-04,0.05066666752099991,1.6376869678497314,1.6376869678497314
292,0.9800000190734863,0.06794091314077377,0.06794091314077377,1e-04,0.05088888853788376,1.635966420173645,1.635966420173645
293,0.9800000190734863,0.06775463372468948,0.06775463372468948,1e-04,0.05000000074505806,1.6336227655410767,1.6336227655410767
294,0.9800000190734863,0.06768988817930222,0.06768988817930222,1e-04,0.05000000074505806,1.632681131362915,1.632681131362915
295,0.9800000190734863,0.06770572811365128,0.06770572811365128,1e-04,0.05044444277882576,1.6305478811264038,1.6305478811264038
296,0.9800000190734863,0.06803829967975616,0.06803829967975616,1e-04,0.05022222176194191,1.6287713050842285,1.6287713050842285
297,0.9800000190734863,0.06759794801473618,0.06759794801473618,1e-04,0.04955555498600006,1.6259520053863525,1.6259520053863525
298,0.9800000190734863,0.067025326192379,0.067025326192379,1e-04,0.04866666719317436,1.624266505241394,1.624266505241394
299,0.9800000190734863,0.06648463010787964,0.06648463010787964,1e-04,0.04866666719317436,1.6216603517532349,1.6216603517532349
300,0.9800000190734863,0.0661713257431984,0.0661713257431984,1e-04,0.04955555498600006,1.62002694606781,1.62002694606781
301,0.9800000190734863,0.0660606399178505,0.0660606399178505,1e-04,0.04911111295223236,1.6176438331604004,1.6176438331604004
302,0.9800000190734863,0.06609826534986496,0.06609826534986496,1e-04,0.04977777600288391,1.6137653589248657,1.6137653589248657
303,0.9800000190734863,0.06634291261434555,0.06634291261434555,1e-04,0.04933333396911621,1.6123279333114624,1.6123279333114624
304,0.9800000190734863,0.06612028926610947,0.06612028926610947,1e-04,0.04866666719317436,1.6097217798233032,1.6097217798233032
305,0.9800000190734863,0.06578169763088226,0.06578169763088226,1e-04,0.04955555498600006,1.6072182655334473,1.6072182655334473
306,0.9800000190734863,0.0652889534831047,0.0652889534831047,1e-04,0.05044444277882576,1.605218768119812,1.605218768119812
307,0.9800000190734863,0.06476286053657532,0.06476286053657532,1e-04,0.05022222176194191,1.6029735803604126,1.6029735803604126
308,0.9819999933242798,0.06441313773393631,0.06441313773393631,1e-04,0.05000000074505806,1.5995819568634033,1.5995819568634033
309,0.9819999933242798,0.06436962634325027,0.06436962634325027,1e-04,0.04911111295223236,1.597227692604065,1.597227692604065
310,0.9819999933242798,0.06435415893793106,0.06435415893793106,1e-04,0.05044444277882576,1.5940632820129395,1.5940632820129395
311,0.9800000190734863,0.06441668421030045,0.06441668421030045,1e-04,0.05155555531382561,1.5904269218444824,1.5904269218444824
312,0.9819999933242798,0.06467143446207047,0.06467143446207047,1e-04,0.052000001072883606,1.5895637273788452,1.5895637273788452
313,0.9819999933242798,0.06409387290477753,0.06409387290477753,1e-04,0.05177777633070946,1.5866665840148926,1.5866665840148926
314,0.9819999933242798,0.06357432901859283,0.06357432901859283,1e-04,0.053555555641651154,1.5829132795333862,1.5829132795333862
315,0.9819999933242798,0.06317085027694702,0.06317085027694702,1e-04,0.05666666850447655,1.580296277999878,1.580296277999878
316,0.9819999933242798,0.06286169588565826,0.06286169588565826,1e-04,0.06044444441795349,1.5755754709243774,1.5755754709243774
317,0.9819999933242798,0.06256726384162903,0.06256726384162903,1e-04,0.06355555355548859,1.5724022388458252,1.5724022388458252
318,0.9800000190734863,0.06266430020332336,0.06266430020332336,1e-04,0.06444444507360458,1.571182131767273,1.571182131767273
319,0.9819999933242798,0.06314898282289505,0.06314898282289505,1e-04,0.07000000029802322,1.5676289796829224,1.5676289796829224
320,0.984000027179718,0.06289910525083542,0.06289910525083542,1e-04,0.07177777588367462,1.563692331314087,1.563692331314087
321,0.9819999933242798,0.0627937987446785,0.0627937987446785,1e-04,0.07355555891990662,1.5632085800170898,1.5632085800170898
322,0.9819999933242798,0.06164673715829849,0.06164673715829849,1e-04,0.07866666465997696,1.5598398447036743,1.5598398447036743
323,0.9819999933242798,0.061229411512613297,0.061229411512613297,1e-04,0.08444444090127945,1.5549962520599365,1.5549962520599365
324,0.9819999933242798,0.06156002730131149,0.06156002730131149,1e-04,0.09066666662693024,1.5523072481155396,1.5523072481155396
325,0.984000027179718,0.06168825924396515,0.06168825924396515,1e-04,0.09533333033323288,1.549106240272522,1.549106240272522
326,0.9819999933242798,0.06163947284221649,0.06163947284221649,1e-04,0.09933333098888397,1.5455666780471802,1.5455666780471802
327,0.9819999933242798,0.060978688299655914,0.060978688299655914,1e-04,0.10511111468076706,1.5440360307693481,1.5440360307693481
328,0.9819999933242798,0.06036181002855301,0.06036181002855301,1e-04,0.1128888875246048,1.5404431819915771,1.5404431819915771
329,0.9819999933242798,0.05995703861117363,0.05995703861117363,1e-04,0.12311111390590668,1.5357168912887573,1.5357168912887573
330,0.9819999933242798,0.0598626546561718,0.0598626546561718,1e-04,0.13111111521720886,1.5328774452209473,1.5328774452209473
331,0.9819999933242798,0.059845663607120514,0.059845663607120514,1e-04,0.13822221755981445,1.5286568403244019,1.5286568403244019
332,0.984000027179718,0.05988449230790138,0.05988449230790138,1e-04,0.1459999978542328,1.5250334739685059,1.5250334739685059
333,0.9819999933242798,0.06020992994308472,0.06020992994308472,1e-04,0.15000000596046448,1.522601842880249,1.522601842880249
334,0.984000027179718,0.05974956229329109,0.05974956229329109,1e-04,0.15622222423553467,1.5204733610153198,1.5204733610153198
335,0.9819999933242798,0.05922960117459297,0.05922960117459297,1e-04,0.1688888818025589,1.5150272846221924,1.5150272846221924
336,0.9819999933242798,0.05867007374763489,0.05867007374763489,1e-04,0.18533332645893097,1.511091947555542,1.511091947555542
337,0.984000027179718,0.058320336043834686,0.058320336043834686,1e-04,0.19511111080646515,1.507062315940857,1.507062315940857
338,0.9819999933242798,0.05850839614868164,0.05850839614868164,1e-04,0.2006666660308838,1.5021946430206299,1.5021946430206299
339,0.984000027179718,0.058820754289627075,0.058820754289627075,1e-04,0.21088889241218567,1.5003348588943481,1.5003348588943481
340,0.9819999933242798,0.05876367166638374,0.05876367166638374,1e-04,0.21622222661972046,1.4961721897125244,1.4961721897125244
341,0.984000027179718,0.058084532618522644,0.058084532618522644,1e-04,0.23288889229297638,1.4928196668624878,1.4928196668624878
342,0.9819999933242798,0.057464126497507095,0.057464126497507095,1e-04,0.24888889491558075,1.4880516529083252,1.4880516529083252
343,0.984000027179718,0.05705299228429794,0.05705299228429794,1e-04,0.2628888785839081,1.4829891920089722,1.4829891920089722
344,0.984000027179718,0.05690883845090866,0.05690883845090866,1e-04,0.2720000147819519,1.4798145294189453,1.4798145294189453
345,0.9819999933242798,0.057001080363988876,0.057001080363988876,1e-04,0.2706666588783264,1.4760961532592773,1.4760961532592773
346,0.984000027179718,0.057143598794937134,0.057143598794937134,1e-04,0.30133333802223206,1.4728715419769287,1.4728715419769287
347,0.9819999933242798,0.05743953958153725,0.05743953958153725,1e-04,0.30533334612846375,1.4673393964767456,1.4673393964767456
348,0.984000027179718,0.057160187512636185,0.057160187512636185,1e-04,0.3306666612625122,1.464672327041626,1.464672327041626
349,0.9819999933242798,0.056422844529151917,0.056422844529151917,1e-04,0.33177778124809265,1.45972740650177,1.45972740650177
350,0.984000027179718,0.05572864040732384,0.05572864040732384,1e-04,0.35511112213134766,1.4560301303863525,1.4560301303863525
351,0.984000027179718,0.05539321526885033,0.05539321526885033,1e-04,0.3722222149372101,1.452646017074585,1.452646017074585
352,0.9819999933242798,0.05545681342482567,0.05545681342482567,1e-04,0.3762222230434418,1.4473299980163574,1.4473299980163574
353,0.984000027179718,0.055682312697172165,0.055682312697172165,1e-04,0.39311110973358154,1.4451102018356323,1.4451102018356323
354,0.9819999933242798,0.05605166405439377,0.05605166405439377,1e-04,0.402222216129303,1.4397467374801636,1.4397467374801636
355,0.984000027179718,0.05571890249848366,0.05571890249848366,1e-04,0.4304444491863251,1.436869740486145,1.436869740486145
356,0.9819999933242798,0.05506103113293648,0.05506103113293648,1e-04,0.43622222542762756,1.431894063949585,1.431894063949585
357,0.984000027179718,0.054319869726896286,0.054319869726896286,1e-04,0.4575555622577667,1.426619529724121,1.426619529724121
358,0.984000027179718,0.0540829673409462,0.0540829673409462,1e-04,0.47822222113609314,1.4223328828811646,1.4223328828811646
359,0.9819999933242798,0.054386354982852936,0.054386354982852936,1e-04,0.47733333706855774,1.4174859523773193,1.4174859523773193
360,0.984000027179718,0.054619599133729935,0.054619599133729935,1e-04,0.4902222156524658,1.414902687072754,1.414902687072754
361,0.9819999933242798,0.05459100753068924,0.05459100753068924,1e-04,0.4955555498600006,1.409252643585205,1.409252643585205
362,0.984000027179718,0.053850144147872925,0.053850144147872925,1e-04,0.5117777585983276,1.405884861946106,1.405884861946106
363,0.984000027179718,0.053182974457740784,0.053182974457740784,1e-04,0.5277777910232544,1.3996760845184326,1.3996760845184326
364,0.984000027179718,0.05287162959575653,0.05287162959575653,1e-04,0.5424444675445557,1.3932099342346191,1.3932099342346191
365,0.984000027179718,0.05295926705002785,0.05295926705002785,1e-04,0.5564444661140442,1.3901857137680054,1.3901857137680054
366,0.9819999933242798,0.05335581302642822,0.05335581302642822,1e-04,0.558222234249115,1.3828462362289429,1.3828462362289429
367,0.984000027179718,0.053730107843875885,0.053730107843875885,1e-04,0.5735555291175842,1.3803064823150635,1.3803064823150635
368,0.9819999933242798,0.05356380343437195,0.05356380343437195,1e-04,0.5788888931274414,1.3750848770141602,1.3750848770141602
369,0.9860000014305115,0.05234573408961296,0.05234573408961296,1e-04,0.5975555777549744,1.3682702779769897,1.3682702779769897
370,0.984000027179718,0.051649343222379684,0.051649343222379684,1e-04,0.6128888726234436,1.361706018447876,1.361706018447876
371,0.984000027179718,0.051853280514478683,0.051853280514478683,1e-04,0.6173333525657654,1.3554275035858154,1.3554275035858154
372,0.9860000014305115,0.052437156438827515,0.052437156438827515,1e-04,0.6306666731834412,1.352781891822815,1.352781891822815
373,0.9819999933242798,0.052792664617300034,0.052792664617300034,1e-04,0.6388888955116272,1.345321536064148,1.345321536064148
374,0.984000027179718,0.05201030522584915,0.05201030522584915,1e-04,0.6435555815696716,1.342686653137207,1.342686653137207
375,0.984000027179718,0.05096553638577461,0.05096553638577461,1e-04,0.660444438457489,1.3343313932418823,1.3343313932418823
376,0.984000027179718,0.050629857927560806,0.050629857927560806,1e-04,0.6779999732971191,1.324730634689331,1.324730634689331
377,0.9860000014305115,0.05102653428912163,0.05102653428912163,1e-04,0.6806666851043701,1.3211811780929565,1.3211811780929565
378,0.984000027179718,0.05134636536240578,0.05134636536240578,1e-04,0.7006666660308838,1.3122718334197998,1.3122718334197998
379,0.9860000014305115,0.05096583068370819,0.05096583068370819,1e-04,0.7002221941947937,1.3101861476898193,1.3101861476898193
380,0.984000027179718,0.05007776618003845,0.05007776618003845,1e-04,0.7046666741371155,1.3058360815048218,1.3058360815048218
381,0.9860000014305115,0.049646321684122086,0.049646321684122086,1e-04,0.7171111106872559,1.2972910404205322,1.2972910404205322
382,0.984000027179718,0.049696169793605804,0.049696169793605804,1e-04,0.7291111350059509,1.291758418083191,1.291758418083191
383,0.984000027179718,0.04981148615479469,0.04981148615479469,1e-04,0.7459999918937683,1.280187964439392,1.280187964439392
384,0.9860000014305115,0.049807269126176834,0.049807269126176834,1e-04,0.753333330154419,1.2760505676269531,1.2760505676269531
385,0.984000027179718,0.04964736849069595,0.04964736849069595,1e-04,0.7493333220481873,1.27219557762146,1.27219557762146
386,0.9860000014305115,0.0491049624979496,0.0491049624979496,1e-04,0.7568888664245605,1.267511248588562,1.267511248588562
387,0.984000027179718,0.048541005700826645,0.048541005700826645,1e-04,0.7664444446563721,1.2599849700927734,1.2599849700927734
388,0.984000027179718,0.0482659712433815,0.0482659712433815,1e-04,0.7764444351196289,1.251441240310669,1.251441240310669
389,0.9860000014305115,0.048286523669958115,0.048286523669958115,1e-04,0.7904444336891174,1.243629813194275,1.243629813194275
390,0.984000027179718,0.048405516892671585,0.048405516892671585,1e-04,0.7964444160461426,1.2358945608139038,1.2358945608139038
391,0.9860000014305115,0.048581186681985855,0.048581186681985855,1e-04,0.7942222356796265,1.235650658607483,1.235650658607483
392,0.984000027179718,0.04859718307852745,0.04859718307852745,1e-04,0.8004444241523743,1.2262779474258423,1.2262779474258423
393,0.9860000014305115,0.04840933158993721,0.04840933158993721,1e-04,0.7982222437858582,1.2255128622055054,1.2255128622055054
394,0.9860000014305115,0.04769182205200195,0.04769182205200195,1e-04,0.8066666722297668,1.2167242765426636,1.2167242765426636
395,0.9860000014305115,0.04704635590314865,0.04704635590314865,1e-04,0.8135555386543274,1.2080379724502563,1.2080379724502563
396,0.9860000014305115,0.046881526708602905,0.046881526708602905,1e-04,0.816444456577301,1.2037928104400635,1.2037928104400635
397,0.9860000014305115,0.04699455946683884,0.04699455946683884,1e-04,0.8240000009536743,1.1952816247940063,1.1952816247940063
398,0.9879999756813049,0.047242045402526855,0.047242045402526855,1e-04,0.828000009059906,1.1924281120300293,1.1924281120300293
399,0.984000027179718,0.04728664830327034,0.04728664830327034,1e-04,0.8284444212913513,1.1841816902160645,1.1841816902160645
400,0.9879999756813049,0.04695107787847519,0.04695107787847519,1e-04,0.8360000252723694,1.1785380840301514,1.1785380840301514
401,0.9860000014305115,0.046235375106334686,0.046235375106334686,1e-04,0.8386666774749756,1.1708849668502808,1.1708849668502808
402,0.9860000014305115,0.045732177793979645,0.045732177793979645,1e-04,0.8391110897064209,1.1646921634674072,1.1646921634674072
403,0.9860000014305115,0.04580840468406677,0.04580840468406677,1e-04,0.8451111316680908,1.1606276035308838,1.1606276035308838
404,0.984000027179718,0.04622485488653183,0.04622485488653183,1e-04,0.8491111397743225,1.1494731903076172,1.1494731903076172
405,0.9879999756813049,0.046818576753139496,0.046818576753139496,1e-04,0.8502222299575806,1.1500205993652344,1.1500205993652344
406,0.984000027179718,0.046847205609083176,0.046847205609083176,1e-04,0.8517777919769287,1.1413884162902832,1.1413884162902832
407,0.9879999756813049,0.045786406844854355,0.045786406844854355,1e-04,0.8517777919769287,1.1383914947509766,1.1383914947509766
408,0.9879999756813049,0.04487626627087593,0.04487626627087593,1e-04,0.8588888645172119,1.1286392211914062,1.1286392211914062
409,0.9860000014305115,0.04502660781145096,0.04502660781145096,1e-04,0.8640000224113464,1.1181540489196777,1.1181540489196777
410,0.9879999756813049,0.045817241072654724,0.045817241072654724,1e-04,0.8584444522857666,1.1221506595611572,1.1221506595611572
411,0.984000027179718,0.046016495674848557,0.046016495674848557,1e-04,0.8657777905464172,1.1096278429031372,1.1096278429031372
412,0.9879999756813049,0.04513001814484596,0.04513001814484596,1e-04,0.867555558681488,1.1054140329360962,1.1054140329360962
413,0.9860000014305115,0.04411790519952774,0.04411790519952774,1e-04,0.8682222366333008,1.0995960235595703,1.0995960235595703
414,0.9879999756813049,0.044187042862176895,0.044187042862176895,1e-04,0.8748888969421387,1.0825684070587158,1.0825684070587158
415,0.9879999756813049,0.04480418190360069,0.04480418190360069,1e-04,0.8764444589614868,1.0819498300552368,1.0819498300552368
416,0.984000027179718,0.04464238882064819,0.04464238882064819,1e-04,0.8773333430290222,1.0741437673568726,1.0741437673568726
417,0.9900000095367432,0.04413386061787605,0.04413386061787605,1e-04,0.8797777891159058,1.0709161758422852,1.0709161758422852
418,0.9860000014305115,0.04337317496538162,0.04337317496538162,1e-04,0.878000020980835,1.068353533744812,1.068353533744812
419,0.9879999756813049,0.043211136013269424,0.043211136013269424,1e-04,0.8799999952316284,1.0565835237503052,1.0565835237503052
420,0.9879999756813049,0.0432681143283844,0.0432681143283844,1e-04,0.8857777714729309,1.0496759414672852,1.0496759414672852
421,0.9860000014305115,0.04341620206832886,0.04341620206832886,1e-04,0.8857777714729309,1.0378365516662598,1.0378365516662598
422,0.9900000095367432,0.043088145554065704,0.043088145554065704,1e-04,0.886888861656189,1.0304251909255981,1.0304251909255981
423,0.9860000014305115,0.042561303824186325,0.042561303824186325,1e-04,0.886888861656189,1.0264759063720703,1.0264759063720703
424,0.9879999756813049,0.04216637462377548,0.04216637462377548,1e-04,0.8864444494247437,1.0214369297027588,1.0214369297027588
425,0.9900000095367432,0.04204782471060753,0.04204782471060753,1e-04,0.8855555653572083,1.011626958847046,1.011626958847046
426,0.9860000014305115,0.042058732360601425,0.042058732360601425,1e-04,0.8866666555404663,1.0011996030807495,1.0011996030807495
427,0.9900000095367432,0.041916411370038986,0.041916411370038986,1e-04,0.890666663646698,0.9953204393386841,0.9953204393386841
428,0.9879999756813049,0.04191432520747185,0.04191432520747185,1e-04,0.8891111016273499,0.9853419065475464,0.9853419065475464
429,0.9900000095367432,0.042089156806468964,0.042089156806468964,1e-04,0.8922222256660461,0.9846355319023132,0.9846355319023132
430,0.9879999756813049,0.042176418006420135,0.042176418006420135,1e-04,0.8866666555404663,0.9685142040252686,0.9685142040252686
431,0.9900000095367432,0.041934773325920105,0.041934773325920105,1e-04,0.8920000195503235,0.968954861164093,0.968954861164093
432,0.9879999756813049,0.041395917534828186,0.041395917534828186,1e-04,0.8899999856948853,0.9618269205093384,0.9618269205093384
433,0.9900000095367432,0.040947820991277695,0.040947820991277695,1e-04,0.8920000195503235,0.9511951804161072,0.9511951804161072
434,0.9879999756813049,0.04081597551703453,0.04081597551703453,1e-04,0.8942221999168396,0.942129909992218,0.942129909992218
435,0.9900000095367432,0.04063008725643158,0.04063008725643158,1e-04,0.8935555815696716,0.9281871914863586,0.9281871914863586
436,0.9900000095367432,0.040557559579610825,0.040557559579610825,1e-04,0.895111083984375,0.9264406561851501,0.9264406561851501
437,0.9879999756813049,0.04060693085193634,0.04060693085193634,1e-04,0.8915555477142334,0.9201236963272095,0.9201236963272095
438,0.9900000095367432,0.04079074040055275,0.04079074040055275,1e-04,0.8946666717529297,0.9148462414741516,0.9148462414741516
439,0.9860000014305115,0.04086223989725113,0.04086223989725113,1e-04,0.8922222256660461,0.9018751978874207,0.9018751978874207
440,0.9919999837875366,0.04054747149348259,0.04054747149348259,1e-04,0.8964444398880005,0.8994530439376831,0.8994530439376831
441,0.9879999756813049,0.04007873684167862,0.04007873684167862,1e-04,0.8960000276565552,0.8882747292518616,0.8882747292518616
442,0.9919999837875366,0.03974289447069168,0.03974289447069168,1e-04,0.8966666460037231,0.8842146992683411,0.8842146992683411
443,0.9900000095367432,0.039404671639204025,0.039404671639204025,1e-04,0.8966666460037231,0.8725354075431824,0.8725353479385376
444,0.9919999837875366,0.03921729326248169,0.03921729326248169,1e-04,0.8968889117240906,0.8660111427307129,0.8660111427307129
445,0.9940000176429749,0.039094652980566025,0.039094652980566025,1e-04,0.8980000019073486,0.861890971660614,0.861890971660614
446,0.9900000095367432,0.03925597295165062,0.03925597295165062,1e-04,0.8968889117240906,0.8496624231338501,0.8496624231338501
447,0.9940000176429749,0.039654362946748734,0.039654362946748734,1e-04,0.898888885974884,0.8494531512260437,0.8494531512260437
448,0.9879999756813049,0.039913322776556015,0.039913322776556015,1e-04,0.8962222337722778,0.8336599469184875,0.8336599469184875
449,0.9940000176429749,0.039785224944353104,0.039785224944353104,1e-04,0.898888885974884,0.8331674337387085,0.8331674337387085
450,0.9919999837875366,0.039176709949970245,0.039176709949970245,1e-04,0.8984444737434387,0.8255684971809387,0.8255684971809387
451,0.9940000176429749,0.03856710344552994,0.03856710344552994,1e-04,0.8997777700424194,0.8168715238571167,0.8168715238571167
452,0.9940000176429749,0.03811706602573395,0.03811706602573395,1e-04,0.8999999761581421,0.8076337575912476,0.8076337575912476
453,0.9940000176429749,0.03805886209011078,0.03805886209011078,1e-04,0.8984444737434387,0.7961360216140747,0.7961360216140747
454,0.9940000176429749,0.03822072222828865,0.03822072222828865,1e-04,0.8999999761581421,0.7959509491920471,0.7959509491920471
455,0.9919999837875366,0.0385071225464344,0.0385071225464344,1e-04,0.8982222080230713,0.7845982909202576,0.7845982909202576
456,0.9940000176429749,0.03880662843585014,0.03880662843585014,1e-04,0.9002222418785095,0.7816769480705261,0.7816769480705261
457,0.9919999837875366,0.03830554336309433,0.03830554336309433,1e-04,0.898888885974884,0.7692117094993591,0.7692117094993591
458,0.9940000176429749,0.037608493119478226,0.037608493119478226,1e-04,0.9004444479942322,0.7631597518920898,0.7631597518920898
459,0.9959999918937683,0.03709002956748009,0.03709002956748009,1e-04,0.9006666541099548,0.75731360912323,0.75731360912323
460,0.9919999837875366,0.03728679567575455,0.03728679567575455,1e-04,0.9004444479942322,0.7488614916801453,0.7488614916801453
461,0.9940000176429749,0.03787224367260933,0.03787224367260933,1e-04,0.9008888602256775,0.7492460012435913,0.7492460012435913
462,0.9919999837875366,0.03829542547464371,0.03829542547464371,1e-04,0.8999999761581421,0.7351505160331726,0.7351505160331726
463,0.9940000176429749,0.038269445300102234,0.038269445300102234,1e-04,0.9008888602256775,0.7372055053710938,0.7372055053710938
464,0.9959999918937683,0.03703058883547783,0.03703058883547783,1e-04,0.9011111259460449,0.7260114550590515,0.7260114550590515
465,0.9940000176429749,0.03640277311205864,0.03640277311205864,1e-04,0.9011111259460449,0.7138313055038452,0.7138313055038452
466,0.9940000176429749,0.03679956868290901,0.03679956868290901,1e-04,0.9024444222450256,0.712160050868988,0.712160050868988
467,0.9919999837875366,0.03745895251631737,0.03745895251631737,1e-04,0.9015555381774902,0.6990757584571838,0.6990757584571838
468,0.9940000176429749,0.03743728622794151,0.03743728622794151,1e-04,0.9028888940811157,0.7042675018310547,0.7042675018310547
469,0.9959999918937683,0.03646713122725487,0.03646713122725487,1e-04,0.9017778038978577,0.6945057511329651,0.6945057511329651
470,0.9940000176429749,0.035742711275815964,0.035742711275815964,1e-04,0.9017778038978577,0.6845313906669617,0.6845313906669617
471,0.9959999918937683,0.03580927476286888,0.03580927476286888,1e-04,0.9028888940811157,0.6803943514823914,0.6803943514823914
472,0.9959999918937683,0.036212604492902756,0.036212604492902756,1e-04,0.9024444222450256,0.6659221053123474,0.6659221053123474
473,0.9940000176429749,0.036280110478401184,0.036280110478401184,1e-04,0.9031111001968384,0.665949285030365,0.665949285030365
474,0.9959999918937683,0.03565660119056702,0.03565660119056702,1e-04,0.903333306312561,0.6568219661712646,0.6568219661712646
475,0.9980000257492065,0.035209521651268005,0.035209521651268005,1e-04,0.9028888940811157,0.6488023400306702,0.6488023400306702
476,0.9940000176429749,0.03521023690700531,0.03521023690700531,1e-04,0.903333306312561,0.6507330536842346,0.6507330536842346
477,0.9980000257492065,0.0353301502764225,0.0353301502764225,1e-04,0.903333306312561,0.6373152732849121,0.6373152732849121
478,0.9959999918937683,0.03523096442222595,0.03523096442222595,1e-04,0.9031111001968384,0.6293380856513977,0.6293380856513977
479,0.9940000176429749,0.03520277142524719,0.03520277142524719,1e-04,0.9039999842643738,0.6237450242042542,0.6237450242042542
480,0.9980000257492065,0.03502409905195236,0.03502409905195236,1e-04,0.9037777781486511,0.619656503200531,0.619656503200531
481,0.9959999918937683,0.03449308127164841,0.03449308127164841,1e-04,0.9042222499847412,0.6153293251991272,0.6153293251991272
482,0.9959999918937683,0.034131281077861786,0.034131281077861786,1e-04,0.9048888683319092,0.6084387898445129,0.6084387898445129
483,0.9980000257492065,0.03424529731273651,0.03424529731273651,1e-04,0.9048888683319092,0.598920464515686,0.598920464515686
484,0.9959999918937683,0.03431397303938866,0.03431397303938866,1e-04,0.9055555462837219,0.5935471057891846,0.5935471057891846
485,0.9980000257492065,0.03416135907173157,0.03416135907173157,1e-04,0.9053333401679993,0.5913559198379517,0.5913559198379517
486,0.9980000257492065,0.03390840068459511,0.03390840068459511,1e-04,0.9055555462837219,0.5820618271827698,0.5820618271827698
487,0.9959999918937683,0.03393322601914406,0.03393322601914406,1e-04,0.9055555462837219,0.5807379484176636,0.5807379484176636
488,0.9980000257492065,0.03380482643842697,0.03380482643842697,1e-04,0.9057777523994446,0.5711865425109863,0.5711865425109863
489,0.9959999918937683,0.03355314955115318,0.03355314955115318,1e-04,0.9062222242355347,0.5668315887451172,0.5668315887451172
490,0.9959999918937683,0.033215221017599106,0.033215221017599106,1e-04,0.9066666960716248,0.5617086887359619,0.5617086887359619
491,0.9980000257492065,0.033159032464027405,0.033159032464027405,1e-04,0.9066666960716248,0.5549349188804626,0.5549349188804626
492,0.9980000257492065,0.0330849327147007,0.0330849327147007,1e-04,0.9066666960716248,0.552536129951477,0.552536129951477
493,1.0,0.03295459598302841,0.03295459598302841,1e-04,0.9084444642066956,0.5440595149993896,0.5440595149993896
494,1.0,0.0327749103307724,0.0327749103307724,1e-04,0.9082221984863281,0.5397164821624756,0.5397164821624756
495,0.9980000257492065,0.032776229083538055,0.032776229083538055,1e-04,0.9082221984863281,0.5364426970481873,0.5364426970481873
496,1.0,0.03285778686404228,0.03285778686404228,1e-04,0.9077777862548828,0.5286064743995667,0.5286064743995667
497,0.9980000257492065,0.032792508602142334,0.032792508602142334,1e-04,0.9097777605056763,0.5206140279769897,0.5206140279769897
498,1.0,0.03288694843649864,0.03288694843649864,1e-04,0.9084444642066956,0.5199061632156372,0.5199061632156372
499,1.0,0.03306339308619499,0.03306339308619499,1e-04,0.9113333225250244,0.5132509469985962,0.5132509469985962
500,0.9980000257492065,0.03298191726207733,0.03298191726207733,1e-04,0.910444438457489,0.5120749473571777,0.5120749473571777
501,1.0,0.03238847851753235,0.03238847851753235,1e-04,0.9115555286407471,0.5042262077331543,0.5042262077331543
502,1.0,0.03215551748871803,0.03215551748871803,1e-04,0.9113333225250244,0.49796852469444275,0.49796852469444275
503,0.9980000257492065,0.03184276446700096,0.03184276446700096,1e-04,0.9113333225250244,0.4937035143375397,0.4937035143375397
504,1.0,0.031768426299095154,0.031768426299095154,1e-04,0.9117777943611145,0.4862077236175537,0.4862077236175537
505,1.0,0.031528081744909286,0.031528081744909286,1e-04,0.9120000004768372,0.48264703154563904,0.48264703154563904
506,1.0,0.03155854716897011,0.03155854716897011,1e-04,0.9133333563804626,0.48135119676589966,0.48135119676589966
507,1.0,0.03166789188981056,0.03166789188981056,1e-04,0.9131110906600952,0.4770461618900299,0.4770461618900299
508,0.9980000257492065,0.03170451149344444,0.03170451149344444,1e-04,0.9168888926506042,0.4709323048591614,0.4709323048591614
509,1.0,0.031785979866981506,0.031785979866981506,1e-04,0.9146666526794434,0.46689730882644653,0.46689730882644653
510,1.0,0.0319695845246315,0.0319695845246315,1e-04,0.9157778024673462,0.46047595143318176,0.46047595143318176
511,0.9980000257492065,0.03177200257778168,0.03177200257778168,1e-04,0.913777768611908,0.4596034586429596,0.4596034586429596
512,1.0,0.03128080070018768,0.03128080070018768,1e-04,0.9171110987663269,0.45413509011268616,0.45413509011268616
513,1.0,0.030910436064004898,0.030910436064004898,1e-04,0.9171110987663269,0.4508674442768097,0.4508674442768097
514,1.0,0.030663106590509415,0.030663106590509415,1e-04,0.9173333048820496,0.44891494512557983,0.44891494512557983
515,1.0,0.03055429644882679,0.03055429644882679,1e-04,0.9173333048820496,0.44158169627189636,0.44158169627189636
516,1.0,0.030333561822772026,0.030333561822772026,1e-04,0.9173333048820496,0.43597617745399475,0.43597617745399475
517,1.0,0.030238628387451172,0.030238628387451172,1e-04,0.9179999828338623,0.43277114629745483,0.43277114629745483
518,1.0,0.03031856194138527,0.03031856194138527,1e-04,0.9182222485542297,0.428543359041214,0.428543359041214
519,1.0,0.03033793531358242,0.03033793531358242,1e-04,0.9202222228050232,0.4267005920410156,0.4267005920410156
520,1.0,0.030378403142094612,0.030378403142094612,1e-04,0.9193333387374878,0.42496272921562195,0.42496272921562195
521,1.0,0.030429011210799217,0.030429011210799217,1e-04,0.9208889007568359,0.4205622673034668,0.4205622673034668
522,1.0,0.03038479946553707,0.03038479946553707,1e-04,0.9193333387374878,0.4172342121601105,0.4172342121601105
523,1.0,0.030335737392306328,0.030335737392306328,1e-04,0.9213333129882812,0.41072556376457214,0.41072556376457214
524,1.0,0.030320851132273674,0.030320851132273674,1e-04,0.9215555787086487,0.4075992703437805,0.40759924054145813
525,1.0,0.030170556157827377,0.030170556157827377,1e-04,0.9222221970558167,0.40627363324165344,0.40627363324165344
526,1.0,0.02995830401778221,0.02995830401778221,1e-04,0.9222221970558167,0.40401554107666016,0.40401554107666016
527,1.0,0.029581550508737564,0.029581550508737564,1e-04,0.9231111407279968,0.4009222090244293,0.4009222090244293
528,1.0,0.02922932431101799,0.02922932431101799,1e-04,0.9228888750076294,0.3965005874633789,0.3965005874633789
529,1.0,0.028985969722270966,0.028985969722270966,1e-04,0.9224444627761841,0.3924846351146698,0.3924846351146698
530,1.0,0.028951257467269897,0.028951257467269897,1e-04,0.9233333468437195,0.3893350064754486,0.3893349766731262
531,1.0,0.028916431590914726,0.028916431590914726,1e-04,0.9235555529594421,0.3871041238307953,0.3871041238307953
532,1.0,0.0289181899279356,0.0289181899279356,1e-04,0.9242222309112549,0.38718634843826294,0.38718634843826294
533,1.0,0.029045013710856438,0.029045013710856438,1e-04,0.9240000247955322,0.3837629556655884,0.3837629556655884
534,1.0,0.02918669581413269,0.02918669581413269,1e-04,0.9244444370269775,0.3810787796974182,0.3810787796974182
535,1.0,0.029439197853207588,0.029439197853207588,1e-04,0.9240000247955322,0.3763291537761688,0.3763291537761688
536,1.0,0.029315631836652756,0.029315631836652756,1e-04,0.9246666431427002,0.3746376037597656,0.3746376037597656
537,1.0,0.02890811674296856,0.02890811674296856,1e-04,0.9246666431427002,0.3702971041202545,0.3702971339225769
538,1.0,0.028506645932793617,0.028506645932793617,1e-04,0.9253333210945129,0.36868414282798767,0.36868414282798767
539,1.0,0.02824385091662407,0.02824385091662407,1e-04,0.9251111149787903,0.3656783401966095,0.3656783401966095
540,1.0,0.028150921687483788,0.028150921687483788,1e-04,0.9248889088630676,0.36130985617637634,0.36130985617637634
541,1.0,0.02823513187468052,0.02823513187468052,1e-04,0.9253333210945129,0.35916081070899963,0.35916081070899963
542,1.0,0.028670694679021835,0.028670694679021835,1e-04,0.9253333210945129,0.35493454337120056,0.35493454337120056
543,1.0,0.028978101909160614,0.028978101909160614,1e-04,0.9255555272102356,0.3568166196346283,0.3568166196346283
544,1.0,0.029036520048975945,0.029036520048975945,1e-04,0.9259999990463257,0.35348230600357056,0.35348230600357056
545,1.0,0.028222113847732544,0.028222113847732544,1e-04,0.9259999990463257,0.35257476568222046,0.35257476568222046
546,1.0,0.027576051652431488,0.027576051652431488,1e-04,0.9255555272102356,0.3484044075012207,0.3484044075012207
547,1.0,0.02743752859532833,0.02743752859532833,1e-04,0.9255555272102356,0.3433452844619751,0.3433452844619751
548,1.0,0.027552001178264618,0.027552001178264618,1e-04,0.9255555272102356,0.34175175428390503,0.34175175428390503
549,1.0,0.027790935710072517,0.027790935710072517,1e-04,0.925777792930603,0.34001514315605164,0.34001514315605164
550,1.0,0.027963312342762947,0.027963312342762947,1e-04,0.9271110892295837,0.34326860308647156,0.34326860308647156
551,1.0,0.027938224375247955,0.027938224375247955,1e-04,0.9273333549499512,0.33893948793411255,0.33893948793411255
552,1.0,0.02742437832057476,0.02742437832057476,1e-04,0.9275555610656738,0.33758625388145447,0.33758625388145447
553,1.0,0.026837743818759918,0.026837743818759918,1e-04,0.9275555610656738,0.3343086540699005,0.3343086540699005
554,1.0,0.026766983792185783,0.026766983792185783,1e-04,0.9271110892295837,0.3310113847255707,0.3310113847255707
555,1.0,0.02712436392903328,0.02712436392903328,1e-04,0.9275555610656738,0.33213499188423157,0.33213499188423157
556,1.0,0.027162615209817886,0.027162615209817886,1e-04,0.9277777671813965,0.328239381313324,0.328239381313324
557,1.0,0.0270235538482666,0.0270235538482666,1e-04,0.9282222390174866,0.3295973539352417,0.3295973539352417
558,1.0,0.027039097622036934,0.027039097622036934,1e-04,0.9279999732971191,0.32643792033195496,0.32643792033195496
559,1.0,0.026771660894155502,0.026771660894155502,1e-04,0.9282222390174866,0.3253713548183441,0.3253713548183441
560,1.0,0.026347016915678978,0.026347016915678978,1e-04,0.9279999732971191,0.32136330008506775,0.32136330008506775
561,1.0,0.026063499972224236,0.026063499972224236,1e-04,0.9279999732971191,0.3189718723297119,0.3189718723297119
562,1.0,0.026090696454048157,0.026090696454048157,1e-04,0.9284444451332092,0.31843289732933044,0.31843289732933044
563,1.0,0.02616242691874504,0.02616242691874504,1e-04,0.9288889169692993,0.31745049357414246,0.31745049357414246
564,1.0,0.026135766878724098,0.026135766878724098,1e-04,0.9293333292007446,0.31976771354675293,0.31976771354675293
565,1.0,0.0263438168913126,0.0263438168913126,1e-04,0.9288889169692993,0.31350764632225037,0.31350764632225037
566,1.0,0.0263871718198061,0.0263871718198061,1e-04,0.9288889169692993,0.31473401188850403,0.31473401188850403
567,1.0,0.02604394592344761,0.02604394592344761,1e-04,0.929111123085022,0.31035488843917847,0.31035488843917847
568,1.0,0.025678835809230804,0.025678835809230804,1e-04,0.9293333292007446,0.31160107254981995,0.31160107254981995
569,1.0,0.02554333582520485,0.02554333582520485,1e-04,0.9293333292007446,0.3126777112483978,0.3126777112483978
570,1.0,0.025457415729761124,0.025457415729761124,1e-04,0.9295555353164673,0.30964964628219604,0.30964964628219604
571,1.0,0.025385228917002678,0.025385228917002678,1e-04,0.9293333292007446,0.3108395040035248,0.3108394742012024
572,1.0,0.02530345879495144,0.02530345879495144,1e-04,0.9293333292007446,0.30834418535232544,0.30834418535232544
573,1.0,0.02533522993326187,0.02533522993326187,1e-04,0.9295555353164673,0.3092610239982605,0.3092610239982605
574,1.0,0.02551812306046486,0.02551812306046486,1e-04,0.9295555353164673,0.30332237482070923,0.30332237482070923
575,1.0,0.02557477355003357,0.02557477355003357,1e-04,0.9297778010368347,0.30606427788734436,0.30606427788734436
576,1.0,0.025783104822039604,0.025783104822039604,1e-04,0.9297778010368347,0.30094873905181885,0.30094873905181885
577,1.0,0.025615772232413292,0.025615772232413292,1e-04,0.9295555353164673,0.3066389858722687,0.3066389858722687
578,1.0,0.025162242352962494,0.025162242352962494,1e-04,0.9295555353164673,0.30208367109298706,0.30208367109298706
579,1.0,0.024720408022403717,0.024720408022403717,1e-04,0.9297778010368347,0.3002011477947235,0.3002011477947235
580,1.0,0.024500638246536255,0.024500638246536255,1e-04,0.9297778010368347,0.2994679808616638,0.2994679808616638
581,1.0,0.02459750883281231,0.02459750883281231,1e-04,0.9300000071525574,0.295209676027298,0.295209676027298
582,1.0,0.02488088607788086,0.02488088607788086,1e-04,0.9297778010368347,0.3014609217643738,0.3014609217643738
583,1.0,0.025210315361618996,0.025210315361618996,1e-04,0.9297778010368347,0.2965470552444458,0.2965470552444458
584,1.0,0.025210890918970108,0.025210890918970108,1e-04,0.9295555353164673,0.29978102445602417,0.29978102445602417
585,1.0,0.02482546679675579,0.02482546679675579,1e-04,0.9300000071525574,0.29488831758499146,0.29488831758499146
586,1.0,0.024239594116806984,0.024239594116806984,1e-04,0.9297778010368347,0.2945868670940399,0.2945868670940399
587,1.0,0.02399003878235817,0.02399003878235817,1e-04,0.9297778010368347,0.2935580909252167,0.2935580909252167
588,1.0,0.02402235008776188,0.02402235008776188,1e-04,0.9304444193840027,0.28982439637184143,0.28982439637184143
589,1.0,0.02432595007121563,0.02432595007121563,1e-04,0.9297778010368347,0.29506343603134155,0.29506343603134155
590,1.0,0.02467687427997589,0.02467687427997589,1e-04,0.93022221326828,0.291486531496048,0.291486531496048
591,1.0,0.02448742650449276,0.02448742650449276,1e-04,0.9295555353164673,0.29741305112838745,0.29741305112838745
592,1.0,0.024175018072128296,0.024175018072128296,1e-04,0.9304444193840027,0.2903439402580261,0.2903439402580261
593,1.0,0.02365517057478428,0.02365517057478428,1e-04,0.9304444193840027,0.28923851251602173,0.28923851251602173
594,1.0,0.02344215102493763,0.02344215102493763,1e-04,0.9300000071525574,0.28978556394577026,0.28978556394577026
595,1.0,0.023563580587506294,0.023563580587506294,1e-04,0.93022221326828,0.2880436182022095,0.2880436182022095
596,1.0,0.0237357709556818,0.0237357709556818,1e-04,0.9297778010368347,0.2945886552333832,0.2945886552333832
597,1.0,0.02397165074944496,0.02397165074944496,1e-04,0.9306666851043701,0.28798025846481323,0.28798025846481323
598,1.0,0.02379908226430416,0.02379908226430416,1e-04,0.93022221326828,0.29252731800079346,0.29252731800079346
599,1.0,0.023390913382172585,0.023390913382172585,1e-04,0.9306666851043701,0.28835123777389526,0.28835123777389526
600,1.0,0.02304498478770256,0.02304498478770256,1e-04,0.9306666851043701,0.285505473613739,0.285505473613739
601,1.0,0.022949503734707832,0.022949503734707832,1e-04,0.9306666851043701,0.28710150718688965,0.28710150718688965
602,1.0,0.023137005046010017,0.023137005046010017,1e-04,0.9311110973358154,0.2823721170425415,0.2823721170425415
603,1.0,0.023395592346787453,0.023395592346787453,1e-04,0.9306666851043701,0.2899003326892853,0.2899003326892853
604,1.0,0.02363959699869156,0.02363959699869156,1e-04,0.9306666851043701,0.28418663144111633,0.28418663144111633
605,1.0,0.023432964459061623,0.023432964459061623,1e-04,0.9306666851043701,0.2877518832683563,0.2877518832683563
606,1.0,0.02288053184747696,0.02288053184747696,1e-04,0.9308888912200928,0.2829645276069641,0.2829645276069641
607,1.0,0.022487109526991844,0.022487109526991844,1e-04,0.9313333630561829,0.279056578874588,0.279056578874588
608,1.0,0.022675655782222748,0.022675655782222748,1e-04,0.9308888912200928,0.2842610478401184,0.2842610478401184
609,1.0,0.023201847448945045,0.023201847448945045,1e-04,0.9322222471237183,0.2783174216747284,0.2783174216747284
610,1.0,0.023433083668351173,0.023433083668351173,1e-04,0.9308888912200928,0.28464236855506897,0.28464236855506897
611,1.0,0.02323649264872074,0.02323649264872074,1e-04,0.9317777752876282,0.28065791726112366,0.28065791726112366
612,1.0,0.022438494488596916,0.022438494488596916,1e-04,0.9317777752876282,0.2793172299861908,0.2793172299861908
613,1.0,0.022108592092990875,0.022108592092990875,1e-04,0.9317777752876282,0.2791077792644501,0.2791077792644501
614,1.0,0.02243579924106598,0.02243579924106598,1e-04,0.9326666593551636,0.2726083993911743,0.2726083993911743
615,1.0,0.022771719843149185,0.022771719843149185,1e-04,0.9317777752876282,0.27602091431617737,0.27602091431617737
616,1.0,0.02285812981426716,0.02285812981426716,1e-04,0.9322222471237183,0.2715114951133728,0.2715114951133728
617,1.0,0.022281425073742867,0.022281425073742867,1e-04,0.9322222471237183,0.2779615521430969,0.2779615521430969
618,1.0,0.02185991033911705,0.02185991033911705,1e-04,0.9322222471237183,0.27692848443984985,0.27692848443984985
619,1.0,0.02180028334259987,0.02180028334259987,1e-04,0.9324444532394409,0.27280962467193604,0.27280962467193604
620,1.0,0.021935859695076942,0.021935859695076942,1e-04,0.9322222471237183,0.27480632066726685,0.27480632066726685
621,1.0,0.022164147347211838,0.022164147347211838,1e-04,0.9337777495384216,0.2667623460292816,0.2667623460292816
622,1.0,0.02202528715133667,0.02202528715133667,1e-04,0.9326666593551636,0.2738928496837616,0.2738928496837616
623,1.0,0.021599458530545235,0.021599458530545235,1e-04,0.9324444532394409,0.2742443382740021,0.2742443382740021
624,1.0,0.021367395296692848,0.021367395296692848,1e-04,0.9331111311912537,0.26929572224617004,0.26929572224617004
625,1.0,0.021558571606874466,0.021558571606874466,1e-04,0.9324444532394409,0.27343639731407166,0.27343639731407166
626,1.0,0.02160820923745632,0.02160820923745632,1e-04,0.933555543422699,0.2690851390361786,0.2690851390361786
627,1.0,0.02149154618382454,0.02149154618382454,1e-04,0.9324444532394409,0.27245479822158813,0.27245479822158813
628,1.0,0.021409282460808754,0.021409282460808754,1e-04,0.9326666593551636,0.2712630331516266,0.2712630331516266
629,1.0,0.021303001791238785,0.021303001791238785,1e-04,0.9340000152587891,0.2655317783355713,0.2655317783355713
630,1.0,0.02107672579586506,0.02107672579586506,1e-04,0.9333333373069763,0.27031388878822327,0.27031388878822327
631,1.0,0.020998727530241013,0.020998727530241013,1e-04,0.9333333373069763,0.27085211873054504,0.27085211873054504
632,1.0,0.021106475964188576,0.021106475964188576,1e-04,0.9331111311912537,0.2723797559738159,0.2723797559738159
633,1.0,0.02121068350970745,0.02121068350970745,1e-04,0.9340000152587891,0.2668556571006775,0.2668556571006775
634,1.0,0.020942144095897675,0.020942144095897675,1e-04,0.9342222213745117,0.2655802369117737,0.2655802369117737
635,1.0,0.020730186253786087,0.020730186253786087,1e-04,0.9346666932106018,0.2638518214225769,0.2638518214225769
636,1.0,0.020718254148960114,0.020718254148960114,1e-04,0.9337777495384216,0.2709134519100189,0.2709134519100189
637,1.0,0.02067544497549534,0.02067544497549534,1e-04,0.9344444274902344,0.26549917459487915,0.26549917459487915
638,1.0,0.02049344778060913,0.02049344778060913,1e-04,0.9351111054420471,0.2621515393257141,0.2621515393257141
639,1.0,0.020348800346255302,0.020348800346255302,1e-04,0.9355555772781372,0.26271718740463257,0.26271718740463257
640,1.0,0.0204240120947361,0.0204240120947361,1e-04,0.9359999895095825,0.25902312994003296,0.25902312994003296
641,1.0,0.020462103188037872,0.020462103188037872,1e-04,0.9351111054420471,0.26356977224349976,0.26356977224349976
642,1.0,0.020297367125749588,0.020297367125749588,1e-04,0.9364444613456726,0.2595334053039551,0.2595334053039551
643,1.0,0.020199758931994438,0.020199758931994438,1e-04,0.9364444613456726,0.2592092454433441,0.2592092454433441
644,1.0,0.020204225555062294,0.020204225555062294,1e-04,0.9377777576446533,0.25879719853401184,0.25879719853401184
645,1.0,0.020227724686264992,0.020227724686264992,1e-04,0.9366666674613953,0.2590121030807495,0.2590121030807495
646,1.0,0.02012338489294052,0.02012338489294052,1e-04,0.9382222294807434,0.2573256194591522,0.2573256194591522
647,1.0,0.01990838348865509,0.01990838348865509,1e-04,0.9382222294807434,0.2564130425453186,0.2564130425453186
648,1.0,0.019873343408107758,0.019873343408107758,1e-04,0.9382222294807434,0.25356701016426086,0.25356701016426086
649,1.0,0.019898734986782074,0.019898734986782074,1e-04,0.9382222294807434,0.25791993737220764,0.25791993737220764
650,1.0,0.01979290321469307,0.01979290321469307,1e-04,0.9384444355964661,0.2564865052700043,0.2564865052700043
651,1.0,0.019625866785645485,0.019625866785645485,1e-04,0.9382222294807434,0.254896342754364,0.254896342754364
652,1.0,0.019610963761806488,0.019610963761806488,1e-04,0.9388889074325562,0.25431644916534424,0.25431644916534424
653,1.0,0.01963884010910988,0.01963884010910988,1e-04,0.9382222294807434,0.2539255917072296,0.2539255917072296
654,1.0,0.01956767775118351,0.01956767775118351,1e-04,0.9386666417121887,0.25563350319862366,0.25563350319862366
655,1.0,0.019440459087491035,0.019440459087491035,1e-04,0.9386666417121887,0.25683149695396423,0.25683149695396423
656,1.0,0.019459452480077744,0.019459452480077744,1e-04,0.9386666417121887,0.25114917755126953,0.25114917755126953
657,1.0,0.01957525499165058,0.01957525499165058,1e-04,0.9384444355964661,0.2558363676071167,0.2558363676071167
658,1.0,0.01952279917895794,0.01952279917895794,1e-04,0.9382222294807434,0.25447794795036316,0.25447794795036316
659,1.0,0.01948782615363598,0.01948782615363598,1e-04,0.9382222294807434,0.2563169598579407,0.2563169598579407
660,1.0,0.019549306482076645,0.019549306482076645,1e-04,0.9388889074325562,0.25289979577064514,0.25289979577064514
661,1.0,0.019491046667099,0.019491046667099,1e-04,0.9384444355964661,0.25452274084091187,0.25452274084091187
662,1.0,0.019400697201490402,0.019400697201490402,1e-04,0.9384444355964661,0.2522229552268982,0.2522229552268982
663,1.0,0.019283996894955635,0.019283996894955635,1e-04,0.9386666417121887,0.25655242800712585,0.25655242800712585
664,1.0,0.01922273449599743,0.01922273449599743,1e-04,0.9393333196640015,0.25042158365249634,0.25042158365249634
665,1.0,0.019066348671913147,0.019066348671913147,1e-04,0.9388889074325562,0.25321218371391296,0.25321218371391296
666,1.0,0.018814116716384888,0.018814116716384888,1e-04,0.9391111135482788,0.2536558210849762,0.2536558210849762
667,1.0,0.018763795495033264,0.018763795495033264,1e-04,0.9391111135482788,0.2512618899345398,0.2512618899345398
668,1.0,0.018840644508600235,0.018840644508600235,1e-04,0.9395555257797241,0.25434109568595886,0.25434109568595886
669,1.0,0.018804727122187614,0.018804727122187614,1e-04,0.9391111135482788,0.2500602900981903,0.2500602900981903
670,1.0,0.018774980679154396,0.018774980679154396,1e-04,0.9386666417121887,0.2525554299354553,0.2525554299354553
671,1.0,0.01889181137084961,0.01889181137084961,1e-04,0.9388889074325562,0.25219249725341797,0.25219249725341797
672,1.0,0.0190338846296072,0.0190338846296072,1e-04,0.9388889074325562,0.2527324855327606,0.2527324855327606
673,1.0,0.0189560204744339,0.0189560204744339,1e-04,0.9386666417121887,0.2494419515132904,0.2494419515132904
674,1.0,0.01876061037182808,0.01876061037182808,1e-04,0.9391111135482788,0.2535567283630371,0.2535567283630371
675,1.0,0.018613675609230995,0.018613675609230995,1e-04,0.9391111135482788,0.24899087846279144,0.24899087846279144
676,1.0,0.018523750826716423,0.018523750826716423,1e-04,0.9391111135482788,0.2524154782295227,0.2524154782295227
677,1.0,0.018266135826706886,0.018266135826706886,1e-04,0.9393333196640015,0.2521284222602844,0.2521284222602844
678,1.0,0.01817801035940647,0.01817801035940647,1e-04,0.9395555257797241,0.24933156371116638,0.24933156371116638
679,1.0,0.01825074665248394,0.01825074665248394,1e-04,0.9393333196640015,0.25351110100746155,0.25351110100746155
680,1.0,0.018338436260819435,0.018338436260819435,1e-04,0.9393333196640015,0.2491634041070938,0.2491634041070938
681,1.0,0.018308905884623528,0.018308905884623528,1e-04,0.9393333196640015,0.2535358667373657,0.2535358667373657
682,1.0,0.018215756863355637,0.018215756863355637,1e-04,0.9388889074325562,0.25228598713874817,0.25228598713874817
683,1.0,0.018152881413698196,0.018152881413698196,1e-04,0.9395555257797241,0.251791775226593,0.251791775226593
684,1.0,0.018011001870036125,0.018011001870036125,1e-04,0.9397777915000916,0.25028717517852783,0.25028717517852783
685,1.0,0.017799222841858864,0.017799222841858864,1e-04,0.9393333196640015,0.252158522605896,0.252158522605896
686,1.0,0.017711734399199486,0.017711734399199486,1e-04,0.9388889074325562,0.25306612253189087,0.25306612253189087
687,1.0,0.01769968867301941,0.01769968867301941,1e-04,0.9395555257797241,0.2547503113746643,0.2547503113746643
688,1.0,0.01766533963382244,0.01766533963382244,1e-04,0.9395555257797241,0.25312861800193787,0.25312861800193787
689,1.0,0.01758156530559063,0.01758156530559063,1e-04,0.9391111135482788,0.25190478563308716,0.25190478563308716
690,1.0,0.017556460574269295,0.017556460574269295,1e-04,0.9391111135482788,0.25762736797332764,0.25762736797332764
691,1.0,0.017559269443154335,0.017559269443154335,1e-04,0.9388889074325562,0.2534584105014801,0.2534584105014801
692,1.0,0.017555177211761475,0.017555177211761475,1e-04,0.9402222037315369,0.25555872917175293,0.25555872917175293
693,1.0,0.01750112883746624,0.01750112883746624,1e-04,0.9397777915000916,0.2519097924232483,0.2519097924232483
694,1.0,0.01744263805449009,0.01744263805449009,1e-04,0.9402222037315369,0.2541762888431549,0.2541762888431549
695,1.0,0.01743863709270954,0.01743863709270954,1e-04,0.9393333196640015,0.2533719539642334,0.2533719539642334
696,1.0,0.017366010695695877,0.017366010695695877,1e-04,0.9397777915000916,0.2530094087123871,0.2530094087123871
697,1.0,0.017267463728785515,0.017267463728785515,1e-04,0.940666675567627,0.24957440793514252,0.24957440793514252
698,1.0,0.017214380204677582,0.017214380204677582,1e-04,0.9399999976158142,0.2534457743167877,0.2534457743167877
699,1.0,0.017143314704298973,0.017143314704298973,1e-04,0.9404444694519043,0.2517828345298767,0.2517828345298767
700,1.0,0.017095722258090973,0.017095722258090973,1e-04,0.940666675567627,0.2539127469062805,0.2539127469062805
701,1.0,0.016965214163064957,0.016965214163064957,1e-04,0.9404444694519043,0.25102707743644714,0.25102707743644714
702,1.0,0.01689946837723255,0.01689946837723255,1e-04,0.9404444694519043,0.2495955377817154,0.2495955377817154
703,1.0,0.01686631329357624,0.01686631329357624,1e-04,0.9404444694519043,0.2527957856655121,0.2527957856655121
704,1.0,0.016829149797558784,0.016829149797558784,1e-04,0.9404444694519043,0.25230246782302856,0.25230246782302856
705,1.0,0.01677415519952774,0.01677415519952774,1e-04,0.9402222037315369,0.25259333848953247,0.25259333848953247
706,1.0,0.016693128272891045,0.016693128272891045,1e-04,0.9408888816833496,0.25011107325553894,0.25011107325553894
707,1.0,0.01667744666337967,0.01667744666337967,1e-04,0.940666675567627,0.25124502182006836,0.25124502182006836
708,1.0,0.016730548813939095,0.016730548813939095,1e-04,0.9408888816833496,0.2518598437309265,0.2518598437309265
709,1.0,0.016849501058459282,0.016849501058459282,1e-04,0.940666675567627,0.25457969307899475,0.25457969307899475
710,1.0,0.01703869178891182,0.01703869178891182,1e-04,0.9399999976158142,0.2493954300880432,0.2493954300880432
711,1.0,0.01711934804916382,0.01711934804916382,1e-04,0.9408888816833496,0.25426751375198364,0.25426751375198364
712,1.0,0.01706114411354065,0.01706114411354065,1e-04,0.9399999976158142,0.2507072389125824,0.2507072389125824
713,1.0,0.01675577275454998,0.01675577275454998,1e-04,0.9404444694519043,0.2557659149169922,0.2557659149169922
714,1.0,0.01648266240954399,0.01648266240954399,1e-04,0.9404444694519043,0.25437620282173157,0.25437620282173157
715,1.0,0.016338372603058815,0.016338372603058815,1e-04,0.9399999976158142,0.25175580382347107,0.25175580382347107
716,1.0,0.016302762553095818,0.016302762553095818,1e-04,0.9404444694519043,0.25603753328323364,0.25603753328323364
717,1.0,0.016307584941387177,0.016307584941387177,1e-04,0.940666675567627,0.25314614176750183,0.25314614176750183
718,1.0,0.016468042507767677,0.016468042507767677,1e-04,0.9404444694519043,0.255471795797348,0.255471795797348
719,1.0,0.016712818294763565,0.016712818294763565,1e-04,0.940666675567627,0.2515632212162018,0.2515632212162018
720,1.0,0.016710791736841202,0.016710791736841202,1e-04,0.9404444694519043,0.2561347782611847,0.2561347782611847
721,1.0,0.016666362062096596,0.016666362062096596,1e-04,0.9399999976158142,0.25136294960975647,0.25136294960975647
722,1.0,0.016312720254063606,0.016312720254063606,1e-04,0.9408888816833496,0.25562089681625366,0.25562089681625366
723,1.0,0.016029004007577896,0.016029004007577896,1e-04,0.940666675567627,0.25274166464805603,0.25274166464805603
724,1.0,0.01590067334473133,0.01590067334473133,1e-04,0.940666675567627,0.25383734703063965,0.25383734703063965
725,1.0,0.01592702604830265,0.01592702604830265,1e-04,0.9402222037315369,0.2579876780509949,0.2579876780509949
726,1.0,0.01609034650027752,0.01609034650027752,1e-04,0.9408888816833496,0.25127530097961426,0.25127530097961426
727,1.0,0.016158577054739,0.016158577054739,1e-04,0.9411110877990723,0.2544863522052765,0.2544863522052765
728,1.0,0.016008013859391212,0.016008013859391212,1e-04,0.9411110877990723,0.2527131140232086,0.2527131140232086
729,1.0,0.015805434435606003,0.015805434435606003,1e-04,0.9404444694519043,0.25363069772720337,0.25363069772720337
730,1.0,0.015702545642852783,0.015702545642852783,1e-04,0.9411110877990723,0.2549162805080414,0.2549162805080414
731,1.0,0.015591086819767952,0.015591086819767952,1e-04,0.9415555596351624,0.2532900273799896,0.2532900273799896
732,1.0,0.015557480044662952,0.015557480044662952,1e-04,0.9408888816833496,0.25385621190071106,0.25385621190071106
733,1.0,0.015603606589138508,0.015603606589138508,1e-04,0.9411110877990723,0.2527976632118225,0.2527976632118225
734,1.0,0.015640297904610634,0.015640297904610634,1e-04,0.9408888816833496,0.2539486885070801,0.2539486885070801
735,1.0,0.015605415217578411,0.015605415217578411,1e-04,0.940666675567627,0.2530856132507324,0.2530856132507324
736,1.0,0.015508539043366909,0.015508539043366909,1e-04,0.9413333535194397,0.25608372688293457,0.25608372688293457
737,1.0,0.015414534136652946,0.015414534136652946,1e-04,0.940666675567627,0.25272780656814575,0.25272780656814575
738,1.0,0.015350719913840294,0.015350719913840294,1e-04,0.9411110877990723,0.25460514426231384,0.25460514426231384
739,1.0,0.015232477337121964,0.015232477337121964,1e-04,0.9411110877990723,0.2550189197063446,0.2550189197063446
740,1.0,0.015159618109464645,0.015159618109464645,1e-04,0.9404444694519043,0.2544565498828888,0.2544565498828888
741,1.0,0.015170504339039326,0.015170504339039326,1e-04,0.9415555596351624,0.25588369369506836,0.25588369369506836
742,1.0,0.01516062393784523,0.01516062393784523,1e-04,0.9413333535194397,0.25293391942977905,0.25293391942977905
743,1.0,0.015196355991065502,0.015196355991065502,1e-04,0.9411110877990723,0.2557998597621918,0.2557998597621918
744,1.0,0.015142345800995827,0.015142345800995827,1e-04,0.9408888816833496,0.25536710023880005,0.25536710023880005
745,1.0,0.015116770751774311,0.015116770751774311,1e-04,0.9413333535194397,0.25444215536117554,0.25444215536117554
746,1.0,0.015043632127344608,0.015043632127344608,1e-04,0.9413333535194397,0.25423088669776917,0.25423088669776917
747,1.0,0.014924809336662292,0.014924809336662292,1e-04,0.9408888816833496,0.25533705949783325,0.25533705949783325
748,1.0,0.014835393987596035,0.014835393987596035,1e-04,0.9411110877990723,0.2545061707496643,0.2545061707496643
749,1.0,0.014844512566924095,0.014844512566924095,1e-04,0.9404444694519043,0.255281537771225,0.255281537771225
750,1.0,0.014791097491979599,0.014791097491979599,1e-04,0.9415555596351624,0.2541508972644806,0.2541508972644806
751,1.0,0.014731431379914284,0.014731431379914284,1e-04,0.9415555596351624,0.2536827325820923,0.2536827325820923
752,1.0,0.014710985124111176,0.014710985124111176,1e-04,0.9411110877990723,0.2567562758922577,0.2567562758922577
753,1.0,0.014782475307583809,0.014782475307583809,1e-04,0.941777765750885,0.25308364629745483,0.25308364629745483
754,1.0,0.014814330264925957,0.014814330264925957,1e-04,0.941777765750885,0.254891961812973,0.254891961812973
755,1.0,0.014756295830011368,0.014756295830011368,1e-04,0.941777765750885,0.254854679107666,0.254854679107666
756,1.0,0.014705194160342216,0.014705194160342216,1e-04,0.9411110877990723,0.25602903962135315,0.25602903962135315
757,1.0,0.014668278396129608,0.014668278396129608,1e-04,0.941777765750885,0.2554597854614258,0.2554597854614258
758,1.0,0.014527606777846813,0.014527606777846813,1e-04,0.9411110877990723,0.25564321875572205,0.25564321875572205
759,1.0,0.014418339356780052,0.014418339356780052,1e-04,0.9411110877990723,0.2560666501522064,0.2560666501522064
760,1.0,0.014339515939354897,0.014339515939354897,1e-04,0.9408888816833496,0.25766777992248535,0.25766777992248535
761,1.0,0.014352201484143734,0.014352201484143734,1e-04,0.9415555596351624,0.255374938249588,0.255374938249588
762,1.0,0.01428466010838747,0.01428466010838747,1e-04,0.940666675567627,0.25660961866378784,0.25660961866378784
763,1.0,0.014223179779946804,0.014223179779946804,1e-04,0.9413333535194397,0.25880351662635803,0.25880351662635803
764,1.0,0.014194032177329063,0.014194032177329063,1e-04,0.9408888816833496,0.25651922821998596,0.25651922821998596
765,1.0,0.014191953465342522,0.014191953465342522,1e-04,0.9415555596351624,0.2591637074947357,0.2591637074947357
766,1.0,0.014170200563967228,0.014170200563967228,1e-04,0.9408888816833496,0.2562342882156372,0.2562342882156372
767,1.0,0.014135423116385937,0.014135423116385937,1e-04,0.9411110877990723,0.26094797253608704,0.26094797253608704
768,1.0,0.014125308953225613,0.014125308953225613,1e-04,0.9404444694519043,0.2607893645763397,0.2607893645763397
769,1.0,0.014169066213071346,0.014169066213071346,1e-04,0.9413333535194397,0.260212779045105,0.260212779045105
770,1.0,0.014214491471648216,0.014214491471648216,1e-04,0.9408888816833496,0.25719574093818665,0.25719574093818665
771,1.0,0.014158254489302635,0.014158254489302635,1e-04,0.9419999718666077,0.2629651427268982,0.2629651427268982
772,1.0,0.014136001467704773,0.014136001467704773,1e-04,0.9411110877990723,0.2582746744155884,0.2582746744155884
773,1.0,0.014037334360182285,0.014037334360182285,1e-04,0.9411110877990723,0.2621961534023285,0.2621961534023285
774,1.0,0.013875461183488369,0.013875461183488369,1e-04,0.940666675567627,0.26010921597480774,0.26010921597480774
775,1.0,0.013768614269793034,0.013768614269793034,1e-04,0.9408888816833496,0.25994816422462463,0.25994816422462463
776,1.0,0.013720753602683544,0.013720753602683544,1e-04,0.9408888816833496,0.2623603641986847,0.2623603641986847
777,1.0,0.013702072203159332,0.013702072203159332,1e-04,0.940666675567627,0.2597638964653015,0.2597638964653015
778,1.0,0.013734826818108559,0.013734826818108559,1e-04,0.9413333535194397,0.26329731941223145,0.26329731941223145
779,1.0,0.013743110001087189,0.013743110001087189,1e-04,0.9413333535194397,0.2598473131656647,0.2598473131656647
780,1.0,0.013757123611867428,0.013757123611867428,1e-04,0.9413333535194397,0.259821355342865,0.259821355342865
781,1.0,0.0137026971206069,0.0137026971206069,1e-04,0.9415555596351624,0.25884512066841125,0.25884512066841125
782,1.0,0.0136232515797019,0.0136232515797019,1e-04,0.9413333535194397,0.2630886137485504,0.2630886137485504
783,1.0,0.01352318748831749,0.01352318748831749,1e-04,0.940666675567627,0.26012009382247925,0.26012009382247925
784,1.0,0.013453287072479725,0.013453287072479725,1e-04,0.9411110877990723,0.25868096947669983,0.25868096947669983
785,1.0,0.013366005383431911,0.013366005383431911,1e-04,0.9413333535194397,0.2601974308490753,0.2601974308490753
786,1.0,0.013360371813178062,0.013360371813178062,1e-04,0.940666675567627,0.2610187530517578,0.2610187530517578
787,1.0,0.013308091089129448,0.013308091089129448,1e-04,0.9411110877990723,0.2632773816585541,0.2632773816585541
788,1.0,0.013316882774233818,0.013316882774233818,1e-04,0.9419999718666077,0.2600473463535309,0.2600473463535309
789,1.0,0.01329771988093853,0.01329771988093853,1e-04,0.9413333535194397,0.26033249497413635,0.26033249497413635
790,1.0,0.013323115184903145,0.013323115184903145,1e-04,0.9419999718666077,0.25975391268730164,0.25975391268730164
791,1.0,0.01333553809672594,0.01333553809672594,1e-04,0.9413333535194397,0.2625317871570587,0.2625317871570587
792,1.0,0.01333814300596714,0.01333814300596714,1e-04,0.9422222375869751,0.2587554454803467,0.2587554454803467
793,1.0,0.013264312408864498,0.013264312408864498,1e-04,0.941777765750885,0.26217544078826904,0.26217544078826904
794,1.0,0.0131877725943923,0.0131877725943923,1e-04,0.9419999718666077,0.26115310192108154,0.26115310192108154
795,1.0,0.013087045401334763,0.013087045401334763,1e-04,0.9411110877990723,0.26191914081573486,0.26191914081573486
796,1.0,0.01300473790615797,0.01300473790615797,1e-04,0.9415555596351624,0.26120033860206604,0.26120033860206604
797,1.0,0.012951572425663471,0.012951572425663471,1e-04,0.941777765750885,0.26037678122520447,0.26037678122520447
798,1.0,0.01290532760322094,0.01290532760322094,1e-04,0.9413333535194397,0.2609679698944092,0.2609679698944092
799,1.0,0.012878671288490295,0.012878671288490295,1e-04,0.9419999718666077,0.2613188326358795,0.2613188326358795
800,1.0,0.01285464782267809,0.01285464782267809,1e-04,0.9413333535194397,0.2619917392730713,0.2619917392730713
801,1.0,0.012875533662736416,0.012875533662736416,1e-04,0.9428889155387878,0.26014596223831177,0.26014596223831177
802,1.0,0.01289251260459423,0.01289251260459423,1e-04,0.941777765750885,0.2616586983203888,0.2616586983203888
803,1.0,0.012940826825797558,0.012940826825797558,1e-04,0.9419999718666077,0.25920361280441284,0.25920361280441284
804,1.0,0.012952120043337345,0.012952120043337345,1e-04,0.941777765750885,0.26188746094703674,0.26188746094703674
805,1.0,0.01296135876327753,0.01296135876327753,1e-04,0.9424444437026978,0.2601778209209442,0.2601778209209442
806,1.0,0.01287856325507164,0.01287856325507164,1e-04,0.9415555596351624,0.26240673661231995,0.26240673661231995
807,1.0,0.012781057506799698,0.012781057506799698,1e-04,0.9428889155387878,0.2622969448566437,0.2622969448566437
808,1.0,0.01266364473849535,0.01266364473849535,1e-04,0.9426666498184204,0.26175010204315186,0.26175010204315186
809,1.0,0.01256844773888588,0.01256844773888588,1e-04,0.9426666498184204,0.26252004504203796,0.26252004504203796
810,1.0,0.01249548140913248,0.01249548140913248,1e-04,0.9426666498184204,0.26206180453300476,0.26206180453300476
811,1.0,0.012478545308113098,0.012478545308113098,1e-04,0.9424444437026978,0.2619166970252991,0.2619166970252991
812,1.0,0.012501552700996399,0.012501552700996399,1e-04,0.9424444437026978,0.26137855648994446,0.26137855648994446
813,1.0,0.01252031046897173,0.01252031046897173,1e-04,0.941777765750885,0.26307931542396545,0.26307931542396545
814,1.0,0.012580749578773975,0.012580749578773975,1e-04,0.9424444437026978,0.26128658652305603,0.26128658652305603
815,1.0,0.012569314800202847,0.012569314800202847,1e-04,0.9422222375869751,0.2643631100654602,0.2643631100654602
816,1.0,0.012517840601503849,0.012517840601503849,1e-04,0.9419999718666077,0.26181042194366455,0.26181042194366455
817,1.0,0.01237038616091013,0.01237038616091013,1e-04,0.9426666498184204,0.2631464898586273,0.2631464898586273
818,1.0,0.012266330420970917,0.012266330420970917,1e-04,0.9424444437026978,0.26452451944351196,0.26452451944351196
819,1.0,0.012210365384817123,0.012210365384817123,1e-04,0.9426666498184204,0.2633989453315735,0.2633989453315735
820,1.0,0.012205298990011215,0.012205298990011215,1e-04,0.9424444437026978,0.26439955830574036,0.26439955830574036
821,1.0,0.01220899261534214,0.01220899261534214,1e-04,0.9415555596351624,0.26192349195480347,0.26192349195480347
822,1.0,0.012210813350975513,0.012210813350975513,1e-04,0.9419999718666077,0.2627663314342499,0.2627663314342499
823,1.0,0.012222674675285816,0.012222674675285816,1e-04,0.9419999718666077,0.2627713084220886,0.2627713084220886
824,1.0,0.012174570001661777,0.012174570001661777,1e-04,0.9424444437026978,0.26354122161865234,0.26354122161865234
825,1.0,0.012122499756515026,0.012122499756515026,1e-04,0.9411110877990723,0.262395441532135,0.262395441532135
826,1.0,0.012053262442350388,0.012053262442350388,1e-04,0.9419999718666077,0.26327255368232727,0.26327255368232727
827,1.0,0.011972201988101006,0.011972201988101006,1e-04,0.9413333535194397,0.2632902264595032,0.2632902264595032
828,1.0,0.011929769068956375,0.011929769068956375,1e-04,0.941777765750885,0.2646234929561615,0.2646234929561615
829,1.0,0.011890413239598274,0.011890413239598274,1e-04,0.941777765750885,0.2645122706890106,0.2645122706890106
830,1.0,0.011865181848406792,0.011865181848406792,1e-04,0.9411110877990723,0.26358020305633545,0.26358020305633545
831,1.0,0.0118707325309515,0.0118707325309515,1e-04,0.941777765750885,0.26513445377349854,0.26513445377349854
832,1.0,0.0118879908695817,0.0118879908695817,1e-04,0.9411110877990723,0.26406198740005493,0.26406198740005493
833,1.0,0.011915341019630432,0.011915341019630432,1e-04,0.9419999718666077,0.26624220609664917,0.26624220609664917
834,1.0,0.01194173563271761,0.01194173563271761,1e-04,0.9411110877990723,0.26444852352142334,0.26444852352142334
835,1.0,0.011938688345253468,0.011938688345253468,1e-04,0.9415555596351624,0.26599761843681335,0.26599761843681335
836,1.0,0.011936880648136139,0.011936880648136139,1e-04,0.941777765750885,0.2656404674053192,0.2656404674053192
837,1.0,0.01181444525718689,0.01181444525718689,1e-04,0.941777765750885,0.26659125089645386,0.26659125089645386
838,1.0,0.011702906340360641,0.011702906340360641,1e-04,0.941777765750885,0.26634880900382996,0.26634880900382996
839,1.0,0.011597013100981712,0.011597013100981712,1e-04,0.9424444437026978,0.26803770661354065,0.26803770661354065
840,1.0,0.011566291563212872,0.011566291563212872,1e-04,0.9424444437026978,0.26766738295555115,0.26766738295555115
841,1.0,0.011570172384381294,0.011570172384381294,1e-04,0.9419999718666077,0.2676003873348236,0.2676003873348236
842,1.0,0.011584035120904446,0.011584035120904446,1e-04,0.941777765750885,0.26824885606765747,0.26824885606765747
843,1.0,0.011636108160018921,0.011636108160018921,1e-04,0.9415555596351624,0.2660523056983948,0.2660523056983948
844,1.0,0.011677130125463009,0.011677130125463009,1e-04,0.9422222375869751,0.2690269351005554,0.2690269351005554
845,1.0,0.011696322821080685,0.011696322821080685,1e-04,0.9408888816833496,0.2658301591873169,0.2658301591873169
846,1.0,0.011579629965126514,0.011579629965126514,1e-04,0.941777765750885,0.2689494490623474,0.2689494490623474
847,1.0,0.011440574191510677,0.011440574191510677,1e-04,0.9419999718666077,0.2701818346977234,0.2701818346977234
848,1.0,0.011343245394527912,0.011343245394527912,1e-04,0.941777765750885,0.2692643702030182,0.2692643702030182
849,1.0,0.011329321190714836,0.011329321190714836,1e-04,0.941777765750885,0.27249619364738464,0.27249619364738464
850,1.0,0.011341515928506851,0.011341515928506851,1e-04,0.9415555596351624,0.26915425062179565,0.26915425062179565
851,1.0,0.011402992531657219,0.011402992531657219,1e-04,0.941777765750885,0.2709668278694153,0.2709668278694153
852,1.0,0.011525725945830345,0.011525725945830345,1e-04,0.941777765750885,0.2701123058795929,0.2701123058795929
853,1.0,0.011494254693388939,0.011494254693388939,1e-04,0.941777765750885,0.2710869610309601,0.2710869610309601
854,1.0,0.011413761414587498,0.011413761414587498,1e-04,0.9415555596351624,0.2686774730682373,0.2686774730682373
855,1.0,0.011230639182031155,0.011230639182031155,1e-04,0.941777765750885,0.2732917070388794,0.2732917070388794
856,1.0,0.01113854255527258,0.01113854255527258,1e-04,0.9419999718666077,0.27288246154785156,0.27288246154785156
857,1.0,0.011115634813904762,0.011115634813904762,1e-04,0.9415555596351624,0.27270016074180603,0.27270016074180603
858,1.0,0.011155158281326294,0.011155158281326294,1e-04,0.9419999718666077,0.27452316880226135,0.27452316880226135
859,1.0,0.011231211945414543,0.011231211945414543,1e-04,0.941777765750885,0.27015870809555054,0.27015870809555054
860,1.0,0.011233611963689327,0.011233611963689327,1e-04,0.9422222375869751,0.27563172578811646,0.27563172578811646
861,1.0,0.011123815551400185,0.011123815551400185,1e-04,0.9422222375869751,0.2747870981693268,0.2747870981693268
862,1.0,0.010978084988892078,0.010978084988892078,1e-04,0.941777765750885,0.27258241176605225,0.27258241176605225
863,1.0,0.010916504077613354,0.010916504077613354,1e-04,0.9419999718666077,0.27460432052612305,0.27460432052612305
864,1.0,0.010927234776318073,0.010927234776318073,1e-04,0.9415555596351624,0.2731633484363556,0.2731633484363556
865,1.0,0.010972932912409306,0.010972932912409306,1e-04,0.941777765750885,0.27655619382858276,0.27655619382858276
866,1.0,0.010999955236911774,0.010999955236911774,1e-04,0.941777765750885,0.27396678924560547,0.27396678924560547
867,1.0,0.010936768725514412,0.010936768725514412,1e-04,0.941777765750885,0.2727677822113037,0.2727677822113037
868,1.0,0.010846929624676704,0.010846929624676704,1e-04,0.941777765750885,0.27406787872314453,0.27406787872314453
869,1.0,0.010750561952590942,0.010750561952590942,1e-04,0.941777765750885,0.2775197923183441,0.2775197923183441
870,1.0,0.010728567838668823,0.010728567838668823,1e-04,0.9422222375869751,0.2761602997779846,0.2761602997779846
871,1.0,0.010755481198430061,0.010755481198430061,1e-04,0.941777765750885,0.27523672580718994,0.27523672580718994
872,1.0,0.010714535601437092,0.010714535601437092,1e-04,0.941777765750885,0.2757991552352905,0.2757991552352905
873,1.0,0.010709187015891075,0.010709187015891075,1e-04,0.941777765750885,0.2728170156478882,0.2728170156478882
874,1.0,0.010711687617003918,0.010711687617003918,1e-04,0.9415555596351624,0.27717241644859314,0.27717241644859314
875,1.0,0.010628282092511654,0.010628282092511654,1e-04,0.941777765750885,0.27458152174949646,0.27458152174949646
876,1.0,0.010562274605035782,0.010562274605035782,1e-04,0.941777765750885,0.2745260000228882,0.2745260000228882
877,1.0,0.010525746271014214,0.010525746271014214,1e-04,0.941777765750885,0.276938796043396,0.276938796043396
878,1.0,0.01053291093558073,0.01053291093558073,1e-04,0.9419999718666077,0.27302733063697815,0.27302733063697815
879,1.0,0.010539459064602852,0.010539459064602852,1e-04,0.941777765750885,0.2749667167663574,0.2749667167663574
880,1.0,0.010513799265027046,0.010513799265027046,1e-04,0.9419999718666077,0.27387121319770813,0.27387121319770813
881,1.0,0.010511092841625214,0.010511092841625214,1e-04,0.941777765750885,0.27328255772590637,0.27328255772590637
882,1.0,0.010496161878108978,0.010496161878108978,1e-04,0.9422222375869751,0.2737463414669037,0.2737463414669037
883,1.0,0.010415332391858101,0.010415332391858101,1e-04,0.9419999718666077,0.2746669352054596,0.2746669352054596
884,1.0,0.010360641404986382,0.010360641404986382,1e-04,0.9419999718666077,0.27270039916038513,0.27270039916038513
885,1.0,0.010335705243051052,0.010335705243051052,1e-04,0.9419999718666077,0.2744084596633911,0.2744084596633911
886,1.0,0.010295663960278034,0.010295663960278034,1e-04,0.941777765750885,0.2748073935508728,0.2748073935508728
887,1.0,0.010282409377396107,0.010282409377396107,1e-04,0.941777765750885,0.27426114678382874,0.27426114678382874
888,1.0,0.010257613845169544,0.010257613845169544,1e-04,0.9424444437026978,0.27411189675331116,0.27411189675331116
889,1.0,0.010259514674544334,0.010259514674544334,1e-04,0.940666675567627,0.2725735604763031,0.2725735604763031
890,1.0,0.010250232182443142,0.010250232182443142,1e-04,0.9424444437026978,0.27445974946022034,0.27445974946022034
891,1.0,0.010226348415017128,0.010226348415017128,1e-04,0.9419999718666077,0.2739405930042267,0.2739405930042267
892,1.0,0.010197017341852188,0.010197017341852188,1e-04,0.9411110877990723,0.2721652090549469,0.2721652090549469
893,1.0,0.010165462270379066,0.010165462270379066,1e-04,0.9402222037315369,0.2727127969264984,0.2727127969264984
894,1.0,0.010121751576662064,0.010121751576662064,1e-04,0.9411110877990723,0.2728833556175232,0.2728833556175232
895,1.0,0.010067889466881752,0.010067889466881752,1e-04,0.9413333535194397,0.27339112758636475,0.27339112758636475
896,1.0,0.010045289993286133,0.010045289993286133,1e-04,0.940666675567627,0.27341991662979126,0.27341991662979126
897,1.0,0.010007815435528755,0.010007815435528755,1e-04,0.9402222037315369,0.2721763253211975,0.2721763253211975
898,1.0,0.010006824508309364,0.010006824508309364,1e-04,0.940666675567627,0.2730356454849243,0.2730356454849243
899,1.0,0.009983787313103676,0.009983787313103676,1e-04,0.9415555596351624,0.2735227644443512,0.2735227644443512
900,1.0,0.009976373985409737,0.009976373985409737,1e-04,0.9397777915000916,0.27313166856765747,0.27313166856765747
901,1.0,0.00998720433562994,0.00998720433562994,1e-04,0.9415555596351624,0.2744816243648529,0.2744816243648529
902,1.0,0.010010634548962116,0.010010634548962116,1e-04,0.9404444694519043,0.2737273573875427,0.2737273573875427
903,1.0,0.010013042017817497,0.010013042017817497,1e-04,0.9413333535194397,0.27459079027175903,0.27459079027175903
904,1.0,0.01001586765050888,0.01001586765050888,1e-04,0.9404444694519043,0.2743796110153198,0.2743796110153198
905,1.0,0.009972894564270973,0.009972894564270973,1e-04,0.9411110877990723,0.27423644065856934,0.27423644065856934
906,1.0,0.009925954975187778,0.009925954975187778,1e-04,0.9402222037315369,0.2738566994667053,0.2738566994667053
907,1.0,0.009868541732430458,0.009868541732430458,1e-04,0.9408888816833496,0.2743925452232361,0.2743925452232361
908,1.0,0.009813670068979263,0.009813670068979263,1e-04,0.9402222037315369,0.2744496166706085,0.2744496166706085
909,1.0,0.009777388535439968,0.009777388535439968,1e-04,0.9402222037315369,0.27459120750427246,0.27459120750427246
910,1.0,0.009734409861266613,0.009734409861266613,1e-04,0.9402222037315369,0.2744515538215637,0.2744515538215637
911,1.0,0.009690552949905396,0.009690552949905396,1e-04,0.9397777915000916,0.2738816440105438,0.2738816440105438
912,1.0,0.009654630906879902,0.009654630906879902,1e-04,0.9397777915000916,0.2742190361022949,0.2742190361022949
913,1.0,0.009643808007240295,0.009643808007240295,1e-04,0.9393333196640015,0.274181604385376,0.274181604385376
914,1.0,0.00962060783058405,0.00962060783058405,1e-04,0.9395555257797241,0.27370232343673706,0.27370232343673706
915,1.0,0.00962992012500763,0.00962992012500763,1e-04,0.9384444355964661,0.2746308743953705,0.2746308743953705
916,1.0,0.009602224454283714,0.009602224454283714,1e-04,0.9391111135482788,0.27415409684181213,0.27415409684181213
917,1.0,0.00958649255335331,0.00958649255335331,1e-04,0.9382222294807434,0.27471300959587097,0.27471300959587097
918,1.0,0.009559966623783112,0.009559966623783112,1e-04,0.9384444355964661,0.2742770314216614,0.2742770314216614
919,1.0,0.0095472177490592,0.0095472177490592,1e-04,0.9377777576446533,0.275241494178772,0.275241494178772
920,1.0,0.009504454210400581,0.009504454210400581,1e-04,0.9384444355964661,0.2746603190898895,0.2746603190898895
921,1.0,0.009471636265516281,0.009471636265516281,1e-04,0.937333345413208,0.2756180465221405,0.2756180465221405
922,1.0,0.009440776892006397,0.009440776892006397,1e-04,0.9371111392974854,0.2750619649887085,0.2750619649887085
923,1.0,0.009405216202139854,0.009405216202139854,1e-04,0.937333345413208,0.2758059799671173,0.2758059799671173
924,1.0,0.00937794242054224,0.00937794242054224,1e-04,0.9368888735771179,0.27621421217918396,0.27621421217918396
925,1.0,0.009351661428809166,0.009351661428809166,1e-04,0.9368888735771179,0.27597227692604065,0.27597227692604065
926,1.0,0.009329055435955524,0.009329055435955524,1e-04,0.9368888735771179,0.276162326335907,0.276162326335907
927,1.0,0.009309617802500725,0.009309617802500725,1e-04,0.9364444613456726,0.27609357237815857,0.27609357237815857
928,1.0,0.009296206757426262,0.009296206757426262,1e-04,0.9368888735771179,0.2764820158481598,0.2764820158481598
929,1.0,0.009286276064813137,0.009286276064813137,1e-04,0.9377777576446533,0.2755330801010132,0.2755330801010132
930,1.0,0.009293314069509506,0.009293314069509506,1e-04,0.9351111054420471,0.27855804562568665,0.27855804562568665
931,1.0,0.009349826723337173,0.009349826723337173,1e-04,0.9375555515289307,0.2753606140613556,0.2753606140613556
932,1.0,0.009410815313458443,0.009410815313458443,1e-04,0.9348888993263245,0.27887532114982605,0.27887532114982605
933,1.0,0.009422097355127335,0.009422097355127335,1e-04,0.9362221956253052,0.27566075325012207,0.27566075325012207
934,1.0,0.009415239095687866,0.009415239095687866,1e-04,0.9357777833938599,0.2781847417354584,0.2781847417354584
935,1.0,0.009279808029532433,0.009279808029532433,1e-04,0.9359999895095825,0.27716466784477234,0.27716466784477234
936,1.0,0.0091622956097126,0.0091622956097126,1e-04,0.9348888993263245,0.27930304408073425,0.27930304408073425
937,1.0,0.009110204875469208,0.009110204875469208,1e-04,0.9362221956253052,0.2777475118637085,0.2777475118637085
938,1.0,0.00909340288490057,0.00909340288490057,1e-04,0.9353333115577698,0.27727198600769043,0.27727198600769043
939,1.0,0.009099212475121021,0.009099212475121021,1e-04,0.9340000152587891,0.28025373816490173,0.28025373816490173
940,1.0,0.009092395193874836,0.009092395193874836,1e-04,0.9357777833938599,0.2773975431919098,0.2773975431919098
941,1.0,0.009118267334997654,0.009118267334997654,1e-04,0.93022221326828,0.2837943136692047,0.2837943136692047
942,1.0,0.009115602821111679,0.009115602821111679,1e-04,0.9359999895095825,0.2775239944458008,0.2775239944458008
943,1.0,0.009064302779734135,0.009064302779734135,1e-04,0.9340000152587891,0.28081223368644714,0.28081223368644714
944,1.0,0.00901153963059187,0.00901153963059187,1e-04,0.933555543422699,0.2800811529159546,0.2800811529159546
945,1.0,0.008978616446256638,0.008978616446256638,1e-04,0.9337777495384216,0.2810690999031067,0.2810690999031067
946,1.0,0.008928921073675156,0.008928921073675156,1e-04,0.9337777495384216,0.2799978256225586,0.2799978256225586
947,1.0,0.008882220834493637,0.008882220834493637,1e-04,0.9331111311912537,0.2803533971309662,0.2803533971309662
948,1.0,0.008857724256813526,0.008857724256813526,1e-04,0.933555543422699,0.28041186928749084,0.28041186928749084
949,1.0,0.008843771182000637,0.008843771182000637,1e-04,0.9317777752876282,0.2819878160953522,0.2819878160953522
950,1.0,0.008834496140480042,0.008834496140480042,1e-04,0.9313333630561829,0.28324317932128906,0.28324317932128906
951,1.0,0.008825531229376793,0.008825531229376793,1e-04,0.9340000152587891,0.2799852788448334,0.2799852788448334
952,1.0,0.008838703855872154,0.008838703855872154,1e-04,0.929111123085022,0.2854284644126892,0.2854284644126892
953,1.0,0.008843817748129368,0.008843817748129368,1e-04,0.9331111311912537,0.2805655598640442,0.2805655598640442
954,1.0,0.008826934732496738,0.008826934732496738,1e-04,0.9297778010368347,0.2851436734199524,0.2851436734199524
955,1.0,0.008777070790529251,0.008777070790529251,1e-04,0.9306666851043701,0.283130943775177,0.283130943775177
956,1.0,0.008746654726564884,0.008746654726564884,1e-04,0.9304444193840027,0.2845662236213684,0.2845662236213684
957,1.0,0.008703217841684818,0.008703217841684818,1e-04,0.929111123085022,0.28604111075401306,0.28604111075401306
958,1.0,0.00866678636521101,0.00866678636521101,1e-04,0.9293333292007446,0.28649523854255676,0.28649523854255676
959,1.0,0.008630339056253433,0.008630339056253433,1e-04,0.9288889169692993,0.2879358232021332,0.2879358232021332
960,1.0,0.00861686933785677,0.00861686933785677,1e-04,0.9282222390174866,0.28851160407066345,0.28851160407066345
961,1.0,0.00862143561244011,0.00862143561244011,1e-04,0.9279999732971191,0.2895304262638092,0.2895304262638092
962,1.0,0.008619677275419235,0.008619677275419235,1e-04,0.9286666512489319,0.28730154037475586,0.28730154037475586
963,1.0,0.008629128336906433,0.008629128336906433,1e-04,0.925777792930603,0.2927260100841522,0.2927260100841522
964,1.0,0.008631227537989616,0.008631227537989616,1e-04,0.9308888912200928,0.2851264774799347,0.2851264774799347
965,1.0,0.008642011322081089,0.008642011322081089,1e-04,0.9268888831138611,0.29151061177253723,0.29151061177253723
966,1.0,0.008591619320213795,0.008591619320213795,1e-04,0.9308888912200928,0.28438448905944824,0.28438448905944824
967,1.0,0.008524194359779358,0.008524194359779358,1e-04,0.93022221326828,0.2870597839355469,0.2870597839355469
968,1.0,0.008471869863569736,0.008471869863569736,1e-04,0.9286666512489319,0.2883756458759308,0.2883756458759308
969,1.0,0.008442007005214691,0.008442007005214691,1e-04,0.9308888912200928,0.2864382565021515,0.2864382565021515
970,1.0,0.00842208694666624,0.00842208694666624,1e-04,0.9288889169692993,0.2888914942741394,0.2888914942741394
971,1.0,0.008437536656856537,0.008437536656856537,1e-04,0.9313333630561829,0.2841641306877136,0.2841641306877136
972,1.0,0.008451313711702824,0.008451313711702824,1e-04,0.9284444451332092,0.2898261845111847,0.2898261845111847
973,1.0,0.008454586379230022,0.008454586379230022,1e-04,0.9308888912200928,0.28614550828933716,0.28614550828933716
974,1.0,0.008458065800368786,0.008458065800368786,1e-04,0.9275555610656738,0.29056498408317566,0.29056498408317566
975,1.0,0.008404373191297054,0.008404373191297054,1e-04,0.9326666593551636,0.28371715545654297,0.28371715545654297
976,1.0,0.008361149579286575,0.008361149579286575,1e-04,0.9306666851043701,0.2862946391105652,0.2862946391105652
977,1.0,0.008304686285555363,0.008304686285555363,1e-04,0.9322222471237183,0.28477975726127625,0.28477975726127625
978,1.0,0.008262284100055695,0.008262284100055695,1e-04,0.9311110973358154,0.28526604175567627,0.28526604175567627
979,1.0,0.008239801973104477,0.008239801973104477,1e-04,0.9304444193840027,0.28621363639831543,0.28621363639831543
980,1.0,0.008244071155786514,0.008244071155786514,1e-04,0.9357777833938599,0.28160277009010315,0.28160277009010315
981,1.0,0.008258229121565819,0.008258229121565819,1e-04,0.9308888912200928,0.28548794984817505,0.28548794984817505
982,1.0,0.008273034356534481,0.008273034356534481,1e-04,0.9351111054420471,0.28190717101097107,0.28190717101097107
983,1.0,0.008288833312690258,0.008288833312690258,1e-04,0.9326666593551636,0.285011351108551,0.285011351108551
984,1.0,0.008260243572294712,0.008260243572294712,1e-04,0.9355555772781372,0.28123366832733154,0.28123366832733154
985,1.0,0.008240138180553913,0.008240138180553913,1e-04,0.9337777495384216,0.28449463844299316,0.28449463844299316
986,1.0,0.008169827982783318,0.008169827982783318,1e-04,0.9351111054420471,0.28261277079582214,0.28261277079582214
987,1.0,0.00811245758086443,0.00811245758086443,1e-04,0.9344444274902344,0.2834552228450775,0.2834552228450775
988,1.0,0.008072234690189362,0.008072234690189362,1e-04,0.9348888993263245,0.28349360823631287,0.28349360823631287
989,1.0,0.00807035993784666,0.00807035993784666,1e-04,0.9357777833938599,0.28161361813545227,0.28161361813545227
990,1.0,0.008080589585006237,0.008080589585006237,1e-04,0.9346666932106018,0.2836968004703522,0.2836968004703522
991,1.0,0.0080852210521698,0.0080852210521698,1e-04,0.9355555772781372,0.28148266673088074,0.28148266673088074
992,1.0,0.008096633478999138,0.008096633478999138,1e-04,0.9342222213745117,0.2843993902206421,0.2843993902206421
993,1.0,0.008072984404861927,0.008072984404861927,1e-04,0.9357777833938599,0.28081661462783813,0.28081661462783813
994,1.0,0.008050467818975449,0.008050467818975449,1e-04,0.9348888993263245,0.28291770815849304,0.28291770815849304
995,1.0,0.007990028709173203,0.007990028709173203,1e-04,0.9359999895095825,0.2810021638870239,0.2810021638870239
996,1.0,0.007944750599563122,0.007944750599563122,1e-04,0.9353333115577698,0.28181856870651245,0.28181856870651245
997,1.0,0.00791504979133606,0.00791504979133606,1e-04,0.9351111054420471,0.28235405683517456,0.28235405683517456
998,1.0,0.007908130064606667,0.007908130064606667,1e-04,0.9362221956253052,0.28006935119628906,0.28006935119628906
999,1.0,0.00791928544640541,0.00791928544640541,1e-04,0.9348888993263245,0.2826657295227051,0.2826657295227051
